18,5,2,3,2,4,3,3,1.4705e+15,0
44,9,6,1,1,2,2,1,1.4705e+15,0
33,7,2,1,1,4,0,0,1.4705e+15,0
24,9,8,2,3,7,5,5,1.4705e+15,0
4,2,2,0,0,2,1,2,1.4705e+15,0
19,4,4,1,2,0,1,1,1.4705e+15,0
18,11,2,1,2,1,0,3,1.4705e+15,0
25,11,1,0,3,2,1,2,1.4705e+15,0
14,4,0,2,1,3,1,2,1.4705e+15,0
3,5,0,2,2,1,3,6,1.4705e+15,0
16,6,3,4,1,0,0,1,1.4705e+15,0
4,2,3,1,1,2,0,3,1.4705e+15,0
3,7,2,0,0,2,1,2,1.4705e+15,0
27,3,2,3,2,3,4,0,1.4705e+15,0
1,1,0,1,1,1,1,5,1.4705e+15,0
10,5,5,1,2,1,2,2,1.4705e+15,0
1,1,1,0,2,6,0,6,1.4705e+15,0
7,1,3,3,1,15,4,2,1.4705e+15,0
10,0,2,1,1,2,3,0,1.4705e+15,0
2,1,2,2,1,2,0,7,1.4705e+15,0
1,2,1,0,3,5,0,3,1.4705e+15,0
26,4,2,1,2,3,1,6,1.4705e+15,0
3,6,4,0,3,12,6,2,1.4705e+15,0
1,3,1,3,0,7,2,4,1.4705e+15,0
20,3,4,1,1,0,3,4,1.4705e+15,0
29,8,4,2,1,4,2,9,1.4705e+15,0
11,2,0,1,2,2,1,3,1.4705e+15,0
12,9,3,3,0,2,0,1,1.4705e+15,0
8,4,2,2,1,4,4,4,1.4705e+15,0
16,0,1,1,0,5,0,4,1.4705e+15,0
21,1,3,3,2,2,8,9,1.4705e+15,0
0,2,1,3,0,5,2,3,1.4705e+15,0
12,7,3,4,0,1,0,0,1.4705e+15,0
1,1,2,3,1,3,1,3,1.4705e+15,0
20,6,4,2,1,0,2,0,1.4705e+15,0
9,3,0,0,1,2,1,5,1.4705e+15,0
10,1,2,1,1,4,3,3,1.4705e+15,0
7,7,3,1,0,2,1,3,1.4705e+15,0
6,6,2,3,4,2,1,1,1.4705e+15,0
21,2,0,2,2,11,1,1,1.4705e+15,0
15,10,2,3,0,24,8,2,1.4705e+15,0
1,2,2,1,0,3,1,0,1.4705e+15,0
12,1,1,0,0,0,1,2,1.4705e+15,0
13,2,2,1,1,0,2,3,1.4705e+15,0
20,3,3,2,1,5,0,2,1.4705e+15,0
13,3,1,1,2,0,3,3,1.4705e+15,0
7,1,1,5,1,0,2,5,1.4705e+15,0
7,2,2,3,1,4,3,1,1.4705e+15,0
1,4,0,0,2,3,2,2,1.4705e+15,0
11,1,0,1,1,2,1,1,1.4705e+15,0
11,4,1,2,1,2,2,0,1.4705e+15,0
23,5,4,3,2,0,1,5,1.4705e+15,0
25,6,3,1,1,1,1,4,1.4705e+15,0
22,2,1,1,2,4,4,3,1.4705e+15,0
11,6,2,3,0,3,1,7,1.4705e+15,0
26,6,3,2,2,3,1,1,1.4705e+15,0
2,8,4,2,1,3,3,7,1.4705e+15,0
13,7,3,0,1,5,1,4,1.4705e+15,0
3,7,2,2,3,6,1,1,1.4705e+15,0
2,1,3,3,4,4,0,0,1.4705e+15,0
23,7,2,1,0,2,1,4,1.4705e+15,0
11,2,1,2,2,1,0,3,1.4705e+15,0
17,7,3,3,3,3,5,7,1.4705e+15,0
7,7,1,1,2,11,3,2,1.4705e+15,0
43,9,2,1,5,22,9,7,1.4705e+15,0
11,3,1,2,2,8,2,0,1.4705e+15,0
15,8,1,0,0,3,0,0,1.4705e+15,0
7,2,1,3,3,3,4,6,1.4705e+15,0
13,1,1,1,0,5,4,5,1.4705e+15,0
20,4,1,1,1,2,2,1,1.4705e+15,0
13,2,1,1,1,5,3,2,1.4705e+15,0
20,4,1,1,0,3,1,2,1.4705e+15,0
9,6,2,3,2,4,0,0,1.4705e+15,0
4,5,4,2,2,2,2,3,1.4705e+15,0
7,3,2,0,0,2,1,1,1.4705e+15,0
4,0,2,0,3,8,5,1,1.4705e+15,0
10,1,3,2,1,4,1,1,1.4705e+15,0
6,5,3,2,4,1,1,3,1.4705e+15,0
4,2,1,3,1,2,1,1,1.4705e+15,0
17,4,2,2,2,5,2,6,1.4705e+15,0
2,3,5,5,1,3,2,1,1.4705e+15,0
6,3,2,2,0,3,3,4,1.4705e+15,0
33,8,6,2,2,3,3,8,1.4705e+15,0
10,1,0,1,1,2,2,2,1.4705e+15,0
7,4,2,1,1,2,0,2,1.4705e+15,0
1,1,0,2,2,1,2,2,1.4705e+15,0
6,1,2,4,0,0,1,1,1.4705e+15,0
7,2,0,0,1,5,1,6,1.4705e+15,0
12,7,4,5,2,5,4,11,1.4705e+15,0
8,0,1,2,3,2,3,3,1.4705e+15,0
5,4,4,4,0,3,0,1,1.4705e+15,0
24,2,3,2,0,5,5,2,1.4705e+15,0
8,6,6,2,0,1,2,6,1.4705e+15,0
16,8,2,1,0,4,2,5,1.4705e+15,0
3,2,2,3,0,3,1,0,1.4705e+15,0
18,7,1,2,2,9,1,4,1.4705e+15,0
14,1,1,1,1,4,0,2,1.4705e+15,0
32,16,7,3,1,2,0,5,1.4705e+15,0
15,2,1,1,1,0,0,3,1.4705e+15,0
2,2,1,0,0,3,2,2,1.4705e+15,0
20,0,1,0,0,0,2,1,1.4705e+15,0
18,6,4,1,2,1,3,6,1.4705e+15,0
7,1,1,1,1,0,1,1,1.4705e+15,0
13,0,0,2,1,5,4,2,1.4705e+15,0
10,1,0,1,0,6,4,1,1.4705e+15,0
4,1,3,1,2,3,4,5,1.4705e+15,0
17,0,2,2,1,2,2,4,1.4705e+15,0
39,10,5,0,1,2,5,7,1.4705e+15,0
8,0,3,3,2,3,1,1,1.4705e+15,0
31,2,4,2,1,8,3,2,1.4705e+15,0
1,3,5,3,1,7,3,3,1.4705e+15,0
17,6,2,1,1,4,2,2,1.4705e+15,0
38,13,5,6,2,0,1,8,1.4705e+15,0
7,1,1,2,1,3,3,2,1.4705e+15,0
1,0,0,2,1,1,2,0,1.4705e+15,0
27,5,2,1,2,2,2,3,1.4705e+15,0
6,2,1,3,0,2,1,1,1.4705e+15,0
3,3,1,2,1,2,4,4,1.4705e+15,0
4,1,1,0,1,2,1,0,1.4705e+15,0
1,4,3,3,2,2,1,1,1.4705e+15,0
15,7,1,0,2,1,0,2,1.4705e+15,0
19,2,2,0,1,3,1,6,1.4705e+15,0
27,8,6,5,2,1,7,10,1.4705e+15,0
4,1,1,2,1,0,0,3,1.4705e+15,0
4,1,0,1,0,1,1,2,1.4705e+15,0
4,1,1,1,1,3,4,4,1.4705e+15,0
21,7,2,1,2,0,1,4,1.4705e+15,0
31,6,6,2,0,0,1,0,1.4705e+15,0
18,0,1,2,1,4,2,0,1.4705e+15,0
4,1,0,1,1,5,2,4,1.4705e+15,0
9,2,2,0,0,1,1,2,1.4705e+15,0
10,4,0,1,1,2,2,0,1.4705e+15,0
8,0,0,3,1,0,2,6,1.4705e+15,0
11,1,0,2,0,10,1,1,1.4705e+15,0
34,4,2,1,3,18,6,4,1.4705e+15,0
21,9,3,1,1,7,3,8,1.4705e+15,0
7,4,3,5,4,4,2,1,1.4705e+15,0
21,3,4,4,3,2,1,0,1.4705e+15,0
3,2,2,0,1,5,1,1,1.4705e+15,0
8,2,0,3,1,4,3,0,1.4705e+15,0
1,3,1,0,2,6,6,4,1.4705e+15,0
12,2,5,1,0,9,8,2,1.4705e+15,0
10,3,2,0,2,6,2,1,1.4705e+15,0
7,7,7,4,1,3,0,1,1.4705e+15,0
5,1,3,0,2,0,6,1,1.4705e+15,0
5,2,0,2,2,6,7,0,1.4705e+15,0
5,5,3,1,1,2,1,5,1.4705e+15,0
17,8,3,4,0,5,1,5,1.4705e+15,0
9,9,3,2,1,13,0,2,1.4705e+15,0
44,8,7,2,2,30,8,5,1.4705e+15,0
7,6,2,3,2,2,4,3,1.4705e+15,0
0,2,1,1,2,3,2,1,1.4705e+15,0
17,2,0,1,0,3,5,4,1.4705e+15,0
5,0,4,0,1,10,3,0,1.4705e+15,0
13,3,0,0,2,7,20,1,1.4705e+15,0
6,7,1,0,0,5,3,4,1.4705e+15,0
9,2,4,3,1,5,5,0,1.4705e+15,0
5,6,3,4,4,2,6,1,1.4705e+15,0
5,5,4,2,1,3,15,1,1.4705e+15,0
2,1,0,3,1,2,4,2,1.4705e+15,0
10,2,1,1,0,2,12,1,1.4705e+15,0
15,0,3,1,1,1,8,0,1.4705e+15,0
26,3,3,0,0,6,14,8,1.4705e+15,0
15,1,3,5,3,2,1,1,1.4705e+15,0
5,5,5,1,2,1,4,3,1.4705e+15,0
3,2,2,1,1,2,2,5,1.4705e+15,0
14,5,1,1,0,7,5,4,1.4705e+15,0
10,7,8,4,1,16,3,1,1.4705e+15,0
3,6,2,2,1,4,7,11,1.4705e+15,0
3,6,0,0,1,7,1,4,1.4705e+15,0
5,4,4,3,1,0,2,2,1.4705e+15,0
5,10,4,1,1,5,4,0,1.4705e+15,0
7,4,0,2,1,5,4,2,1.4705e+15,0
2,2,1,1,1,8,2,0,1.4705e+15,0
13,2,5,2,2,5,4,1,1.4705e+15,0
12,5,4,3,3,1,6,5,1.4705e+15,0
29,2,0,1,1,12,1,2,1.4705e+15,0
30,2,0,2,0,14,4,4,1.4705e+15,0
7,8,3,1,1,0,1,4,1.4705e+15,0
18,4,1,0,1,4,1,0,1.4705e+15,0
20,6,1,3,0,4,0,0,1.4705e+15,0
23,3,2,1,1,5,0,0,1.4705e+15,0
14,1,3,3,2,1,3,0,1.4705e+15,0
3,1,1,1,1,3,3,1,1.4705e+15,0
1,1,3,1,3,3,0,2,1.4705e+15,0
5,4,1,0,1,1,0,3,1.4705e+15,0
8,9,3,0,2,2,2,2,1.4705e+15,0
2,3,1,3,0,12,4,0,1.4705e+15,0
16,7,3,3,1,11,4,0,1.4705e+15,0
19,2,0,2,1,6,3,0,1.4705e+15,0
17,1,2,1,3,1,1,4,1.4705e+15,0
2,3,1,2,1,3,0,0,1.4705e+15,0
23,6,1,4,1,4,2,0,1.4705e+15,0
3,4,0,0,1,5,0,3,1.4705e+15,0
17,2,0,1,1,1,3,3,1.4705e+15,0
12,5,3,0,1,6,6,1,1.4705e+15,0
0,2,2,2,2,0,1,2,1.4705e+15,0
1,4,2,0,0,1,0,1,1.4705e+15,0
3,0,1,0,0,1,1,2,1.4705e+15,0
12,8,4,3,1,2,3,2,1.4705e+15,0
13,1,1,1,0,1,2,0,1.4705e+15,0
8,1,2,5,4,1,3,4,1.4705e+15,0
9,1,2,0,0,1,1,5,1.4705e+15,0
10,5,3,4,2,5,3,0,1.4705e+15,0
36,10,2,2,1,1,2,2,1.4705e+15,0
11,2,0,0,1,1,0,2,1.4705e+15,0
2,1,1,0,2,14,5,2,1.4705e+15,0
11,5,1,0,1,10,4,2,1.4705e+15,0
10,1,0,0,0,3,1,3,1.4705e+15,0
15,4,5,4,2,7,2,2,1.4705e+15,0
18,2,4,3,4,2,2,3,1.4705e+15,0
18,2,1,2,1,0,0,1,1.4705e+15,0
4,3,2,2,1,4,2,7,1.4705e+15,0
27,10,0,1,2,2,1,2,1.4705e+15,0
1,1,3,2,0,6,2,1,1.4705e+15,0
8,3,2,4,1,3,0,4,1.4705e+15,0
6,0,1,3,0,3,2,0,1.4705e+15,0
1,2,1,1,0,1,0,1,1.4705e+15,0
5,6,4,3,3,8,6,0,1.4705e+15,0
13,1,0,1,0,1,1,2,1.4705e+15,0
8,0,3,3,1,6,0,2,1.4705e+15,0
17,7,3,2,1,1,1,3,1.4705e+15,0
22,6,3,2,0,1,1,1,1.4705e+15,0
21,3,2,3,2,1,1,0,1.4705e+15,0
23,7,6,3,5,3,6,9,1.4705e+15,0
1,4,2,3,4,2,2,2,1.4705e+15,0
4,2,0,1,3,1,1,3,1.4705e+15,0
15,3,1,3,1,3,3,4,1.4705e+15,0
18,0,0,0,1,3,1,3,1.4705e+15,0
12,0,4,3,2,1,0,1,1.4705e+15,0
26,5,2,2,3,2,3,5,1.4705e+15,0
8,1,0,3,1,1,1,2,1.4705e+15,0
26,7,2,4,3,1,0,3,1.4705e+15,0
9,6,5,1,1,6,3,2,1.4705e+15,0
10,5,3,0,1,6,1,4,1.4705e+15,0
3,2,1,1,1,4,1,1,1.4705e+15,0
20,5,1,0,4,1,1,2,1.4705e+15,0
1,3,0,3,2,4,3,4,1.4705e+15,0
4,4,2,1,1,2,1,3,1.4705e+15,0
10,8,3,1,1,4,4,2,1.4705e+15,0
4,4,6,4,3,1,2,0,1.4705e+15,0
24,6,2,0,2,4,2,1,1.4705e+15,0
19,1,0,0,3,2,0,1,1.4705e+15,0
17,3,3,2,3,4,0,1,1.4705e+15,0
8,10,4,1,0,3,1,0,1.4705e+15,0
5,3,2,0,1,3,1,1,1.4705e+15,0
6,1,5,2,2,4,2,3,1.4705e+15,0
5,1,1,1,0,4,1,6,1.4705e+15,0
17,4,1,1,1,8,1,2,1.4705e+15,0
28,5,3,0,1,3,3,3,1.4705e+15,0
7,3,1,0,2,10,3,1,1.4705e+15,0
7,0,1,1,1,16,7,1,1.4705e+15,0
7,4,3,0,1,1,0,1,1.4705e+15,0
27,4,2,0,1,0,2,4,1.4705e+15,0
16,6,2,1,1,3,1,2,1.4705e+15,0
5,7,2,4,2,5,0,3,1.4705e+15,0
1,2,0,2,0,2,1,2,1.4705e+15,0
19,1,0,1,1,0,1,1,1.4705e+15,0
5,2,2,3,4,4,2,2,1.4705e+15,0
13,1,1,1,1,5,2,2,1.4705e+15,0
11,13,5,3,3,8,4,2,1.4705e+15,0
2,3,1,0,1,2,1,2,1.4705e+15,0
22,4,1,2,0,0,1,2,1.4705e+15,0
5,4,1,1,0,0,1,1,1.4705e+15,0
4,5,1,2,1,1,0,1,1.4705e+15,0
1,2,1,2,0,1,0,1,1.4705e+15,0
17,5,2,1,0,5,1,2,1.4705e+15,0
15,5,0,1,3,1,4,0,1.4705e+15,0
2,3,2,2,0,1,1,2,1.4705e+15,0
0,2,3,0,0,3,0,1,1.4705e+15,0
1,1,1,0,1,2,0,1,1.4705e+15,0
0,3,0,1,1,1,2,1,1.4705e+15,0
1,2,3,3,1,2,3,3,1.4705e+15,0
23,7,2,3,1,10,3,2,1.4705e+15,0
8,4,2,2,1,22,9,3,1.4705e+15,0
10,2,0,1,0,4,0,0,1.4705e+15,0
1,0,2,0,1,0,0,1,1.4705e+15,0
20,1,3,1,1,3,1,1,1.4705e+15,0
2,1,3,3,3,3,4,0,1.4705e+15,0
17,1,1,2,1,3,2,6,1.4705e+15,0
47,9,2,0,1,1,1,5,1.4705e+15,0
20,9,4,2,1,7,8,7,1.4705e+15,0
24,3,2,1,1,2,2,1,1.4705e+15,0
10,1,2,3,3,7,7,2,1.4705e+15,0
12,1,1,2,0,5,0,0,1.4705e+15,0
17,2,5,4,1,4,0,2,1.4705e+15,0
25,4,2,3,1,5,2,6,1.4705e+15,0
19,4,8,4,4,2,4,5,1.4705e+15,0
10,0,3,2,2,0,0,2,1.4705e+15,0
9,0,6,4,3,6,6,2,1.4705e+15,0
8,0,0,2,1,0,0,3,1.4705e+15,0
6,2,0,1,0,3,1,0,1.4705e+15,0
1,2,2,1,1,4,2,1,1.4705e+15,0
9,2,1,0,0,0,1,4,1.4705e+15,0
12,2,1,2,1,2,0,2,1.4705e+15,0
15,6,1,1,0,3,1,4,1.4705e+15,0
24,10,4,2,1,8,6,6,1.4705e+15,0
2,1,1,3,1,6,2,1,1.4705e+15,0
21,7,6,2,4,2,3,7,1.4705e+15,0
0,3,2,3,0,2,1,1,1.4705e+15,0
5,3,3,2,3,2,1,2,1.4705e+15,0
5,1,1,1,0,0,1,1,1.4705e+15,0
22,7,4,3,1,0,1,3,1.4705e+15,0
17,1,2,2,3,1,1,0,1.4705e+15,0
6,1,5,1,0,1,0,2,1.4705e+15,0
5,1,0,0,3,4,1,2,1.4705e+15,0
5,1,2,0,0,1,1,0,1.4705e+15,0
3,0,1,2,0,0,2,7,1.4705e+15,0
4,3,2,3,2,2,0,3,1.4705e+15,0
9,2,0,0,0,3,1,0,1.4705e+15,0
24,6,9,2,1,2,2,0,1.4705e+15,0
1,1,4,2,1,5,0,1,1.4705e+15,0
1,1,3,2,0,15,4,2,1.4705e+15,0
8,1,5,1,3,16,4,2,1.4705e+15,0
13,7,3,2,0,8,1,2,1.4705e+15,0
3,6,6,4,1,3,2,2,1.4705e+15,0
20,5,1,0,0,0,1,8,1.4705e+15,0
1,2,3,0,2,2,3,2,1.4705e+15,0
11,2,1,4,4,3,5,6,1.4705e+15,0
24,4,4,1,0,3,2,4,1.4705e+15,0
10,2,6,0,2,1,1,1,1.4705e+15,0
19,3,1,0,1,1,1,3,1.4705e+15,0
12,7,6,1,0,5,2,2,1.4705e+15,0
24,5,4,1,1,4,3,1,1.4705e+15,0
19,6,6,1,0,8,5,1,1.4705e+15,0
25,0,2,0,0,1,1,5,1.4705e+15,0
11,4,4,1,2,1,1,5,1.4705e+15,0
0,1,3,2,0,1,0,0,1.4705e+15,0
12,2,3,3,2,0,3,3,1.4705e+15,0
4,5,3,4,1,1,5,4,1.4705e+15,0
5,1,2,1,1,1,2,1,1.4705e+15,0
6,1,4,3,1,2,0,1,1.4705e+15,0
12,2,0,3,0,3,2,3,1.4705e+15,0
10,4,1,1,0,1,3,3,1.4705e+15,0
7,2,0,3,1,2,0,2,1.4705e+15,0
2,2,2,1,1,5,2,0,1.4705e+15,0
1,1,2,0,1,1,0,3,1.4705e+15,0
3,3,1,2,2,2,3,4,1.4705e+15,0
1,1,0,1,0,1,2,6,1.4705e+15,0
6,4,3,2,3,1,1,1,1.4705e+15,0
21,2,2,2,1,4,1,5,1.4705e+15,0
1,0,1,2,0,1,1,1,1.4705e+15,0
17,0,2,1,1,1,1,2,1.4705e+15,0
17,2,0,0,0,5,3,2,1.4705e+15,0
8,0,1,1,0,5,0,2,1.4705e+15,0
19,1,2,3,2,1,0,3,1.4705e+15,0
31,10,8,5,2,3,4,6,1.4705e+15,0
1,3,4,1,3,2,2,3,1.4705e+15,0
12,4,0,1,2,0,0,5,1.4705e+15,0
18,6,0,3,2,0,1,4,1.4705e+15,0
2,1,3,2,1,1,1,1,1.4705e+15,0
8,1,2,3,1,1,1,3,1.4705e+15,0
37,8,6,3,2,0,1,6,1.4705e+15,0
31,8,7,4,3,3,2,14,1.4705e+15,0
14,2,1,0,0,1,2,3,1.4705e+15,0
19,9,3,3,1,2,0,3,1.4705e+15,0
7,3,4,1,0,1,0,1,1.4705e+15,0
1,1,1,1,1,2,3,4,1.4705e+15,0
20,4,1,1,0,0,1,2,1.4705e+15,0
5,2,1,0,1,2,1,2,1.4705e+15,0
1,0,2,1,1,7,5,2,1.4705e+15,0
17,5,3,1,3,0,4,2,1.4705e+15,0
9,2,0,0,2,8,2,2,1.4705e+15,0
11,1,1,3,1,8,2,1,1.4705e+15,0
20,8,5,4,1,7,0,2,1.4705e+15,0
5,1,5,2,0,3,2,0,1.4705e+15,0
5,1,0,0,1,7,1,2,1.4705e+15,0
7,0,4,1,2,7,4,3,1.4705e+15,0
2,1,2,2,1,6,2,2,1.4705e+15,0
16,1,0,1,0,12,5,5,1.4705e+15,0
0,1,0,1,2,24,7,3,1.4705e+15,0
25,6,1,1,1,2,1,3,1.4705e+15,0
2,1,2,1,1,2,0,2,1.4705e+15,0
5,4,3,1,1,1,2,3,1.4705e+15,0
14,4,2,1,1,7,4,6,1.4705e+15,0
7,5,1,2,0,2,2,2,1.4705e+15,0
24,3,2,2,3,5,0,2,1.4705e+15,0
12,3,0,1,1,2,2,0,1.4705e+15,0
15,11,11,5,3,2,7,9,1.4705e+15,0
5,1,2,1,1,3,4,1,1.4705e+15,0
0,2,4,2,0,7,4,3,1.4705e+15,0
9,0,1,1,1,3,0,3,1.4705e+15,0
14,2,1,1,0,4,4,7,1.4705e+15,0
8,0,0,0,1,1,0,2,1.4705e+15,0
4,1,4,2,0,2,3,4,1.4705e+15,0
1,1,3,4,1,4,3,1,1.4705e+15,0
14,3,6,4,1,2,2,3,1.4705e+15,0
1,0,3,0,3,2,1,2,1.4705e+15,0
12,1,1,3,1,2,1,2,1.4705e+15,0
18,7,4,2,3,8,3,5,1.4705e+15,0
10,0,1,3,0,12,6,2,1.4705e+15,0
4,3,1,1,1,4,4,1,1.4705e+15,0
7,4,3,2,2,1,2,2,1.4705e+15,0
1,0,3,0,0,1,3,4,1.4705e+15,0
3,3,5,1,1,5,4,2,1.4705e+15,0
5,4,2,3,1,2,1,0,1.4705e+15,0
20,6,1,3,0,3,2,3,1.4705e+15,0
18,8,3,1,1,0,1,1,1.4705e+15,0
7,4,1,1,1,4,2,3,1.4705e+15,0
16,3,0,1,1,2,1,6,1.4705e+15,0
1,1,2,0,0,7,3,2,1.4705e+15,0
12,1,1,2,0,7,2,1,1.4705e+15,0
12,3,2,2,2,0,0,2,1.4705e+15,0
6,5,1,3,2,3,1,3,1.4705e+15,0
18,2,2,1,1,4,3,9,1.4705e+15,0
6,8,2,0,1,3,1,1,1.4705e+15,0
7,5,2,1,0,1,0,0,1.4705e+15,0
12,1,1,3,0,1,0,1,1.4705e+15,0
4,0,1,3,1,1,1,2,1.4705e+15,0
1,4,3,1,0,1,2,0,1.4705e+15,0
14,4,0,2,0,2,3,3,1.4705e+15,0
11,3,3,2,1,2,0,2,1.4705e+15,0
2,1,0,1,2,3,2,2,1.4705e+15,0
6,3,3,1,1,5,2,3,1.4705e+15,0
30,3,2,3,1,5,3,4,1.4705e+15,0
22,10,5,2,1,6,3,5,1.4705e+15,0
24,5,1,5,3,3,0,4,1.4705e+15,0
7,0,2,0,1,2,1,1,1.4705e+15,0
7,4,3,0,2,7,3,0,1.4705e+15,0
12,1,2,2,1,12,4,3,1.4705e+15,0
13,4,4,2,1,4,2,5,1.4705e+15,0
1,1,2,3,0,7,3,1,1.4705e+15,0
9,3,0,0,1,2,2,1,1.4705e+15,0
0,4,2,1,1,6,5,4,1.4705e+15,0
4,2,1,2,2,2,1,1,1.4705e+15,0
11,1,2,2,1,2,1,3,1.4705e+15,0
6,3,3,3,1,1,2,1,1.4705e+15,0
13,2,0,1,2,1,2,1,1.4705e+15,0
42,12,3,0,0,1,1,6,1.4705e+15,0
31,8,2,0,4,1,0,3,1.4705e+15,0
0,2,1,1,1,1,0,1,1.4705e+15,0
3,1,5,1,2,7,3,1,1.4705e+15,0
11,2,0,3,3,2,2,1,1.4705e+15,0
11,5,3,0,1,1,3,5,1.4705e+15,0
15,4,2,0,1,2,1,3,1.4705e+15,0
20,7,1,3,0,5,1,3,1.4705e+15,0
35,9,5,3,1,2,2,5,1.4705e+15,0
10,3,1,2,2,1,3,3,1.4705e+15,0
1,4,0,1,0,0,2,0,1.4705e+15,0
4,0,0,1,1,3,2,3,1.4705e+15,0
13,2,0,0,1,1,2,2,1.4705e+15,0
4,0,1,0,2,1,0,1,1.4705e+15,0
21,7,1,1,0,2,2,1,1.4705e+15,0
13,1,2,1,1,2,2,3,1.4705e+15,0
29,2,6,5,4,6,4,3,1.4705e+15,0
12,15,6,4,3,1,4,6,1.4705e+15,0
6,6,1,2,1,0,1,2,1.4705e+15,0
7,3,1,1,1,3,1,2,1.4705e+15,0
4,2,0,1,2,0,1,1,1.4705e+15,0
11,0,0,0,0,0,0,1,1.4705e+15,0
1,1,3,0,0,1,2,1,1.4705e+15,0
4,4,4,1,0,1,0,4,1.4705e+15,0
1,4,3,3,1,0,1,1,1.4705e+15,0
4,3,2,1,0,3,0,1,1.4705e+15,0
28,8,6,1,0,4,2,0,1.4705e+15,0
2,1,7,3,2,0,2,2,1.4705e+15,0
2,0,1,3,2,1,1,1,1.4705e+15,0
7,1,1,3,1,0,2,3,1.4705e+15,0
3,0,1,3,0,2,0,3,1.4705e+15,0
9,1,1,1,0,1,2,0,1.4705e+15,0
8,5,3,5,3,1,2,0,1.4705e+15,0
1,1,1,1,1,4,0,2,1.4705e+15,0
10,4,3,2,1,2,1,3,1.4705e+15,0
7,0,1,1,0,1,2,4,1.4705e+15,0
5,2,2,1,0,4,0,1,1.4705e+15,0
3,2,0,1,2,1,1,3,1.4705e+15,0
9,6,3,4,2,3,2,1,1.4705e+15,0
0,0,3,1,1,4,1,2,1.4705e+15,0
5,2,2,1,2,6,2,1,1.4705e+15,0
20,4,1,3,1,0,1,3,1.4705e+15,0
2,3,4,1,3,2,1,0,1.4705e+15,0
26,9,8,6,2,1,1,0,1.4705e+15,0
10,2,2,1,4,3,2,3,1.4705e+15,0
2,5,1,4,1,1,1,2,1.4705e+15,0
10,9,4,2,0,2,4,3,1.4705e+15,0
11,2,1,1,1,1,1,1,1.4705e+15,0
7,1,0,1,1,3,2,5,1.4705e+15,0
17,8,0,0,0,0,0,2,1.4705e+15,0
4,3,1,1,0,1,1,2,1.4705e+15,0
8,6,5,4,2,3,0,3,1.4705e+15,0
5,3,0,3,2,4,2,4,1.4705e+15,0
10,8,3,5,3,6,4,4,1.4705e+15,0
11,0,1,2,2,0,1,2,1.4705e+15,0
10,3,1,1,0,0,1,1,1.4705e+15,0
10,8,4,1,0,1,0,0,1.4705e+15,0
14,5,0,4,2,2,3,0,1.4705e+15,0
17,6,2,2,1,2,2,7,1.4705e+15,0
8,1,1,3,1,2,4,2,1.4705e+15,0
3,1,1,4,1,3,2,4,1.4705e+15,0
4,3,1,2,2,1,1,1,1.4705e+15,0
5,0,1,1,1,2,2,2,1.4705e+15,0
3,0,0,1,1,0,2,2,1.4705e+15,0
4,1,4,1,0,2,2,2,1.4705e+15,0
11,1,3,1,1,1,0,0,1.4705e+15,0
3,1,4,3,2,4,3,6,1.4705e+15,0
3,7,2,1,1,0,0,2,1.4705e+15,0
14,4,3,0,1,1,1,3,1.4705e+15,0
17,3,0,0,1,2,1,2,1.4705e+15,0
3,3,2,1,1,0,1,0,1.4705e+15,0
10,3,0,1,1,0,1,4,1.4705e+15,0
12,6,4,2,2,4,4,3,1.4705e+15,0
13,0,1,1,0,2,1,0,1.4705e+15,0
5,2,2,2,1,4,3,2,1.4705e+15,0
9,2,1,1,1,7,3,1,1.4705e+15,0
25,7,7,3,1,2,1,4,1.4705e+15,0
6,5,6,3,1,1,1,2,1.4705e+15,0
11,2,4,5,4,3,4,0,1.4705e+15,0
1,3,2,2,1,1,1,1,1.4705e+15,0
6,2,2,2,3,12,1,0,1.4705e+15,0
1,2,0,1,3,20,6,3,1.4705e+15,0
4,4,2,0,1,1,1,2,1.4705e+15,0
11,3,0,2,1,0,0,0,1.4705e+15,0
15,11,6,2,4,7,4,4,1.4705e+15,0
1,3,0,1,0,9,2,0,1.4705e+15,0
24,3,2,1,0,1,1,0,1.4705e+15,0
24,5,2,0,2,5,2,2,1.4705e+15,0
6,0,1,2,0,1,0,0,1.4705e+15,0
29,8,4,1,1,1,3,4,1.4705e+15,0
4,1,1,0,2,5,1,2,1.4705e+15,0
11,3,5,2,0,11,1,0,1.4705e+15,0
13,0,2,1,2,5,4,6,1.4705e+15,0
24,3,1,1,0,0,1,2,1.4705e+15,0
11,5,4,2,1,1,0,3,1.4705e+15,0
2,1,0,0,1,6,4,1,1.4705e+15,0
2,1,2,3,4,1,2,1,1.4705e+15,0
10,9,6,1,2,1,0,3,1.4705e+15,0
5,2,1,1,1,3,1,2,1.4705e+15,0
5,1,0,0,0,5,2,0,1.4705e+15,0
15,3,2,1,1,3,2,1,1.4705e+15,0
19,1,2,0,0,2,2,1,1.4705e+15,0
0,3,4,1,2,1,1,1,1.4705e+15,0
2,1,2,0,2,4,0,1,1.4705e+15,0
3,3,2,1,0,1,1,0,1.4705e+15,0
1,0,2,2,3,1,2,1,1.4705e+15,0
5,0,1,1,0,12,5,1,1.4705e+15,0
12,1,1,0,2,24,7,4,1.4705e+15,0
8,3,0,0,1,2,4,1,1.4705e+15,0
11,2,3,1,2,2,0,4,1.4705e+15,0
4,3,2,0,1,3,2,1,1.4705e+15,0
4,9,3,2,1,0,1,1,1.4705e+15,0
12,7,1,3,1,0,0,1,1.4705e+15,0
2,3,0,1,1,2,1,1,1.4705e+15,0
2,1,0,0,2,2,0,2,1.4705e+15,0
0,3,4,1,1,6,2,2,1.4705e+15,0
4,2,3,2,1,3,3,4,1.4705e+15,0
14,3,3,5,2,0,0,2,1.4705e+15,0
11,2,1,0,0,2,2,2,1.4705e+15,0
7,0,1,1,1,1,2,2,1.4705e+15,0
9,5,1,2,1,3,1,7,1.4705e+15,0
10,2,2,1,1,0,0,0,1.4705e+15,0
14,3,1,2,1,2,1,2,1.4705e+15,0
2,3,0,0,0,0,2,4,1.4705e+15,0
6,2,0,2,0,3,1,3,1.4705e+15,0
14,2,0,2,0,0,0,2,1.4705e+15,0
10,4,4,1,2,8,3,5,1.4705e+15,0
6,4,1,1,2,1,1,4,1.4705e+15,0
3,1,3,3,0,1,1,0,1.4705e+15,0
0,5,4,1,1,0,0,1,1.4705e+15,0
11,3,1,0,1,1,0,0,1.4705e+15,0
4,0,0,1,0,1,1,0,1.4705e+15,0
13,6,3,2,2,6,3,2,1.4705e+15,0
16,2,0,1,2,2,1,3,1.4705e+15,0
5,1,0,4,0,14,1,0,1.4705e+15,0
11,0,0,1,1,9,2,1,1.4705e+15,0
2,5,1,1,0,0,2,2,1.4705e+15,0
19,0,2,0,1,4,2,3,1.4705e+15,0
6,0,2,3,2,1,1,3,1.4705e+15,0
10,0,0,0,2,7,4,0,1.4705e+15,0
19,0,2,0,2,3,0,3,1.4705e+15,0
5,5,2,2,1,2,1,1,1.4705e+15,0
18,3,3,2,1,6,1,4,1.4705e+15,0
5,2,1,0,2,2,1,1,1.4705e+15,0
9,0,1,0,2,2,0,2,1.4705e+15,0
2,1,2,3,3,1,3,3,1.4705e+15,0
5,1,4,3,2,3,1,2,1.4705e+15,0
4,2,0,1,0,1,2,2,1.4705e+15,0
6,0,0,1,1,3,0,2,1.4705e+15,0
7,4,3,2,1,1,1,0,1.4705e+15,0
6,0,1,1,0,2,0,0,1.4705e+15,0
7,1,3,1,0,3,5,1,1.4705e+15,0
9,5,0,1,1,3,2,2,1.4705e+15,0
20,5,3,0,1,5,0,2,1.4705e+15,0
23,3,6,2,3,1,0,1,1.4705e+15,0
5,5,3,2,2,4,6,9,1.4705e+15,0
3,1,1,3,0,4,1,1,1.4705e+15,0
8,0,2,4,1,2,0,3,1.4705e+15,0
29,6,1,2,0,3,2,3,1.4705e+15,0
3,2,6,3,1,2,0,1,1.4705e+15,0
12,3,3,1,2,3,3,1,1.4705e+15,0
2,2,2,1,0,1,4,1,1.4705e+15,0
10,11,2,1,1,5,1,2,1.4705e+15,0
8,1,2,5,3,17,5,1,1.4705e+15,0
7,3,1,1,3,3,4,3,1.4705e+15,0
14,4,1,2,2,5,2,1,1.4705e+15,0
17,4,1,1,1,5,5,3,1.4705e+15,0
24,6,2,4,1,5,2,5,1.4705e+15,0
8,1,0,1,1,3,0,3,1.4705e+15,0
2,5,2,2,1,4,2,3,1.4705e+15,0
1,2,3,2,1,1,2,1,1.4705e+15,0
5,3,0,3,1,3,1,1,1.4705e+15,0
9,1,0,3,1,2,2,2,1.4705e+15,0
8,1,2,2,0,1,2,2,1.4705e+15,0
1,0,2,1,0,2,1,2,1.4705e+15,0
6,2,2,1,0,4,1,1,1.4705e+15,0
1,0,0,0,0,1,1,2,1.4705e+15,0
14,8,8,3,0,3,1,2,1.4705e+15,0
34,11,5,0,1,0,2,5,1.4705e+15,0
47,21,9,0,3,6,6,7,1.4705e+15,0
2,3,3,0,1,1,4,1,1.4705e+15,0
5,4,1,4,2,1,1,4,1.4705e+15,0
13,5,0,2,1,2,2,3,1.4705e+15,0
4,2,2,1,0,0,2,5,1.4705e+15,0
11,4,2,0,0,5,3,2,1.4705e+15,0
4,4,1,0,1,4,3,1,1.4705e+15,0
5,4,0,1,1,1,0,1,1.4705e+15,0
7,6,1,2,4,0,2,1,1.4705e+15,0
9,4,2,2,0,1,1,1,1.4705e+15,0
10,2,3,1,2,0,0,2,1.4705e+15,0
9,4,5,1,1,1,1,2,1.4705e+15,0
5,1,3,0,0,3,1,1,1.4705e+15,0
25,4,1,2,0,2,1,2,1.4705e+15,0
27,8,5,1,0,2,1,3,1.4705e+15,0
2,2,0,1,2,1,2,6,1.4705e+15,0
9,1,4,3,0,1,0,3,1.4705e+15,0
5,0,0,1,0,1,1,4,1.4705e+15,0
15,4,3,0,0,3,0,3,1.4705e+15,0
1,7,5,4,2,2,8,7,1.4705e+15,0
11,4,2,2,1,1,3,0,1.4705e+15,0
8,5,1,1,1,2,4,3,1.4705e+15,0
5,1,2,2,0,8,2,1,1.4705e+15,0
10,3,0,0,0,10,4,1,1.4705e+15,0
5,2,2,3,0,4,0,0,1.4705e+15,0
3,1,2,1,1,5,3,3,1.4705e+15,0
12,3,1,1,1,6,0,1,1.4705e+15,0
38,3,2,1,1,0,1,3,1.4705e+15,0
6,2,1,0,2,2,0,3,1.4705e+15,0
6,2,1,1,0,2,0,1,1.4705e+15,0
5,1,1,0,0,2,1,1,1.4705e+15,0
15,0,1,2,1,1,0,3,1.4705e+15,0
4,0,0,1,0,3,2,1,1.4705e+15,0
23,9,4,2,2,3,4,5,1.4705e+15,0
4,1,0,0,2,6,1,1,1.4705e+15,0
1,1,2,1,1,4,0,2,1.4705e+15,0
6,4,3,2,2,1,1,1,1.4705e+15,0
7,5,6,1,0,3,3,2,1.4705e+15,0
17,6,6,2,3,4,3,4,1.4705e+15,0
12,5,1,3,1,2,3,4,1.4705e+15,0
1,0,3,4,1,5,5,2,1.4705e+15,0
2,3,1,1,1,4,2,3,1.4705e+15,0
7,1,1,1,1,1,3,1,1.4705e+15,0
10,6,0,1,0,1,1,1,1.4705e+15,0
32,3,4,1,1,1,3,2,1.4705e+15,0
10,4,0,1,4,2,1,2,1.4705e+15,0
5,1,1,1,1,0,1,1,1.4705e+15,0
18,0,2,2,1,1,2,1,1.4705e+15,0
10,3,1,1,1,5,3,5,1.4705e+15,0
7,6,3,2,1,1,0,1,1.4705e+15,0
11,3,2,0,1,0,1,2,1.4705e+15,0
12,0,1,0,2,3,4,4,1.4705e+15,0
0,3,3,3,1,4,0,2,1.4705e+15,0
12,6,2,1,1,2,5,3,1.4705e+15,0
7,6,6,1,0,2,2,1,1.4705e+15,0
4,3,2,1,0,0,0,0,1.4705e+15,0
11,4,3,4,1,3,4,1,1.4705e+15,0
3,2,1,1,2,1,0,1,1.4705e+15,0
16,3,2,1,1,1,2,1,1.4705e+15,0
4,5,6,2,2,2,0,2,1.4705e+15,0
18,9,3,3,0,0,0,4,1.4705e+15,0
13,12,2,1,2,0,0,2,1.4705e+15,0
13,0,2,4,2,7,2,2,1.4705e+15,0
7,5,3,3,0,1,2,0,1.4705e+15,0
5,1,1,2,2,2,0,0,1.4705e+15,0
1,5,4,4,2,1,0,1,1.4705e+15,0
4,0,0,1,0,1,2,5,1.4705e+15,0
2,1,8,3,2,3,3,2,1.4705e+15,0
15,2,2,1,3,0,1,0,1.4705e+15,0
26,4,1,2,1,5,0,1,1.4705e+15,0
3,2,3,0,0,5,2,2,1.4705e+15,0
9,3,2,1,1,2,2,1,1.4705e+15,0
6,2,1,0,2,4,1,1,1.4705e+15,0
11,6,5,3,4,2,2,1,1.4705e+15,0
21,3,3,0,0,4,0,4,1.4705e+15,0
2,3,2,2,2,0,2,1,1.4705e+15,0
19,3,1,1,1,0,0,1,1.4705e+15,0
6,1,1,2,0,1,1,2,1.4705e+15,0
6,1,2,3,0,5,3,3,1.4705e+15,0
8,6,6,4,0,2,0,3,1.4705e+15,0
1,5,5,5,2,4,3,7,1.4705e+15,0
4,7,2,2,1,1,2,1,1.4705e+15,0
8,7,1,0,1,1,2,1,1.4705e+15,0
6,1,1,2,1,2,1,1,1.4705e+15,0
17,3,2,1,2,2,1,1,1.4705e+15,0
6,1,1,2,0,1,0,2,1.4705e+15,0
0,1,2,1,1,6,3,3,1.4705e+15,0
16,5,2,1,1,5,2,3,1.4705e+15,0
11,2,2,1,1,0,2,3,1.4705e+15,0
22,6,1,3,1,0,2,4,1.4705e+15,0
17,6,6,3,1,7,4,7,1.4705e+15,0
2,2,3,3,2,5,3,4,1.4705e+15,0
6,5,1,1,1,3,1,1,1.4705e+15,0
4,4,7,4,1,2,4,1,1.4705e+15,0
25,5,1,1,1,5,2,6,1.4705e+15,0
7,4,5,3,2,4,2,2,1.4705e+15,0
0,0,3,1,1,0,2,1,1.4705e+15,0
2,5,3,3,0,3,1,3,1.4705e+15,0
5,4,3,3,3,2,0,0,1.4705e+15,0
34,9,5,1,1,5,2,6,1.4705e+15,0
1,2,6,2,1,0,1,2,1.4705e+15,0
7,3,2,1,2,0,1,2,1.4705e+15,0
18,0,1,2,2,2,1,8,1.4705e+15,0
21,0,1,0,0,3,1,6,1.4705e+15,0
10,2,2,1,2,3,2,0,1.4705e+15,0
1,4,4,2,1,3,2,0,1.4705e+15,0
9,5,3,1,0,6,0,0,1.4705e+15,0
0,2,4,1,2,4,6,2,1.4705e+15,0
17,4,2,4,2,1,0,0,1.4705e+15,0
0,1,3,0,1,6,6,0,1.4705e+15,0
12,3,0,1,0,0,1,1,1.4705e+15,0
5,1,1,1,0,0,1,1,1.4705e+15,0
7,1,3,4,3,2,2,2,1.4705e+15,0
7,5,1,3,2,0,2,2,1.4705e+15,0
8,3,5,1,1,4,1,2,1.4705e+15,0
15,1,1,4,1,3,1,1,1.4705e+15,0
15,5,1,2,0,3,2,2,1.4705e+15,0
3,5,0,2,1,0,1,0,1.4705e+15,0
24,7,4,0,0,3,3,2,1.4705e+15,0
5,3,0,4,0,1,1,1,1.4705e+15,0
8,6,5,1,1,0,2,1,1.4705e+15,0
1,0,4,1,2,1,0,3,1.4705e+15,0
12,2,2,3,1,3,1,2,1.4705e+15,0
2,1,1,2,0,6,3,0,1.4705e+15,0
4,6,8,3,2,5,3,2,1.4705e+15,0
0,4,2,0,2,4,1,1,1.4705e+15,0
8,0,5,3,1,2,0,2,1.4705e+15,0
9,4,3,3,0,0,2,1,1.4705e+15,0
3,3,3,0,1,10,1,4,1.4705e+15,0
18,14,6,3,3,19,8,6,1.4705e+15,0
21,6,4,3,0,3,4,4,1.4705e+15,0
5,1,5,1,2,1,1,2,1.4705e+15,0
18,4,3,1,0,6,4,0,1.4705e+15,0
16,4,1,2,1,6,3,3,1.4705e+15,0
4,2,2,0,1,1,3,4,1.4705e+15,0
3,6,2,1,1,3,3,3,1.4705e+15,0
8,0,2,2,3,4,2,2,1.4705e+15,0
11,6,2,4,1,4,2,2,1.4705e+15,0
19,6,1,0,1,0,1,2,1.4705e+15,0
10,9,0,1,1,7,4,1,1.4705e+15,0
5,2,1,4,3,2,2,0,1.4705e+15,0
12,1,4,1,1,1,0,2,1.4705e+15,0
18,3,4,2,0,3,1,2,1.4705e+15,0
8,0,4,3,3,5,7,1,1.4705e+15,0
6,3,1,0,0,2,1,1,1.4705e+15,0
0,2,2,2,1,3,1,1,1.4705e+15,0
5,4,1,1,0,1,1,4,1.4705e+15,0
16,4,0,1,1,1,1,2,1.4705e+15,0
21,4,3,1,2,6,3,5,1.4705e+15,0
3,3,2,1,3,3,1,0,1.4705e+15,0
11,2,2,0,2,1,0,3,1.4705e+15,0
20,12,4,1,1,1,0,6,1.4705e+15,0
1,1,1,4,3,4,0,1,1.4705e+15,0
4,3,2,2,0,0,1,1,1.4705e+15,0
9,1,1,0,2,1,1,1,1.4705e+15,0
14,4,3,3,1,1,1,0,1.4705e+15,0
4,3,0,2,0,0,2,4,1.4705e+15,0
7,2,1,1,1,5,3,4,1.4705e+15,0
13,2,3,2,2,3,2,4,1.4705e+15,0
36,5,5,1,0,1,1,8,1.4705e+15,0
3,4,6,3,1,7,1,0,1.4705e+15,0
2,1,1,2,2,1,0,0,1.4705e+15,0
2,2,4,2,1,0,0,3,1.4705e+15,0
13,4,1,0,0,1,1,3,1.4705e+15,0
12,5,5,2,2,1,0,2,1.4705e+15,0
7,1,1,1,3,2,2,1,1.4705e+15,0
10,4,2,2,1,1,3,4,1.4705e+15,0
9,1,2,2,1,1,0,1,1.4705e+15,0
8,1,1,2,1,1,2,4,1.4705e+15,0
28,10,4,2,2,0,0,1,1.4705e+15,0
15,2,3,2,4,0,2,9,1.4705e+15,0
28,7,4,2,1,0,2,3,1.4705e+15,0
10,7,2,0,1,1,0,3,1.4705e+15,0
10,2,1,1,1,0,1,3,1.4705e+15,0
4,1,0,0,1,0,1,1,1.4705e+15,0
1,5,3,2,4,5,6,6,1.4705e+15,0
15,3,0,1,2,3,1,4,1.4705e+15,0
15,1,1,1,1,1,1,1,1.4705e+15,0
2,1,1,0,0,2,1,1,1.4705e+15,0
7,0,0,3,0,0,0,1,1.4705e+15,0
20,6,1,0,1,3,1,1,1.4705e+15,0
2,2,1,2,1,4,2,1,1.4705e+15,0
10,2,2,1,0,1,1,1,1.4705e+15,0
3,2,1,3,1,1,1,3,1.4705e+15,0
9,0,0,2,2,3,3,2,1.4705e+15,0
3,5,4,2,0,0,3,2,1.4705e+15,0
14,1,4,0,1,1,2,1,1.4705e+15,0
9,7,4,4,1,2,1,3,1.4705e+15,0
2,0,2,3,2,1,3,0,1.4705e+15,0
8,4,5,3,1,3,0,4,1.4705e+15,0
3,6,1,1,3,1,5,1,1.4705e+15,0
2,5,0,1,1,1,0,1,1.4705e+15,0
4,3,0,0,1,0,1,0,1.4705e+15,0
11,5,4,0,1,2,1,4,1.4705e+15,1
32,2,3,1,2,0,2,5,1.4705e+15,1
22,4,7,3,2,3,1,4,1.4705e+15,1
5,2,1,4,3,3,3,0,1.4705e+15,1
4,0,1,1,1,1,1,1,1.4705e+15,1
5,7,0,3,2,2,1,3,1.4705e+15,1
4,3,4,1,2,3,1,2,1.4705e+15,1
5,0,1,0,0,2,2,0,1.4705e+15,1
16,3,0,3,0,1,0,3,1.4705e+15,1
14,1,0,0,0,2,0,2,1.4705e+15,1
17,4,0,5,2,1,0,1,1.4705e+15,1
2,4,4,4,0,2,0,0,1.4705e+15,1
12,8,3,0,2,0,2,0,1.4705e+15,1
6,3,0,2,1,2,2,5,1.4705e+15,1
3,2,0,1,1,1,0,3,1.4705e+15,1
5,2,3,3,1,2,2,4,1.4705e+15,1
8,3,3,0,1,5,0,1,1.4705e+15,1
11,2,0,1,1,3,2,1,1.4705e+15,1
6,1,2,0,2,0,0,1,1.4705e+15,1
1,2,2,1,1,5,4,3,1.4705e+15,1
7,6,3,0,2,2,0,4,1.4705e+15,1
9,4,3,1,1,0,3,1,1.4705e+15,1
11,4,0,0,1,2,1,3,1.4705e+15,1
8,2,0,2,1,2,1,1,1.4705e+15,1
6,2,4,0,0,4,3,3,1.4705e+15,1
6,0,0,3,0,2,2,0,1.4705e+15,1
10,7,5,3,1,1,2,1,1.4705e+15,1
13,0,1,3,2,3,0,1,1.4705e+15,1
18,0,1,0,1,4,3,0,1.4705e+15,1
4,5,0,1,1,1,2,1,1.4705e+15,1
5,5,1,1,0,1,0,2,1.4705e+15,1
1,1,1,2,1,1,0,0,1.4705e+15,1
25,2,2,1,0,3,1,3,1.4705e+15,1
13,2,6,5,2,4,4,4,1.4705e+15,1
4,0,3,1,1,0,1,2,1.4705e+15,1
5,1,1,4,0,2,1,1,1.4705e+15,1
6,2,4,3,0,4,1,3,1.4705e+15,1
5,1,4,1,0,1,1,1,1.4705e+15,1
4,1,2,0,2,3,3,1,1.4705e+15,1
10,4,1,3,0,0,2,1,1.4705e+15,1
4,0,1,1,2,2,0,1,1.4705e+15,1
15,2,2,2,0,3,1,4,1.4705e+15,1
13,5,1,0,1,1,2,7,1.4705e+15,1
37,13,10,4,3,8,7,11,1.4705e+15,1
2,0,2,2,0,0,3,0,1.4705e+15,1
2,4,1,4,0,4,2,3,1.4705e+15,1
0,1,0,1,1,2,0,1,1.4705e+15,1
14,7,2,0,0,1,1,0,1.4705e+15,1
14,4,0,3,0,0,0,0,1.4705e+15,1
0,3,5,2,4,5,6,5,1.4705e+15,1
12,5,3,0,0,3,1,3,1.4705e+15,1
6,3,0,3,1,2,2,0,1.4705e+15,1
4,1,1,1,2,0,1,0,1.4705e+15,1
18,10,8,5,1,0,2,2,1.4705e+15,1
1,3,4,2,1,2,1,2,1.4705e+15,1
26,6,2,2,1,1,1,0,1.4705e+15,1
4,5,1,0,2,3,1,2,1.4705e+15,1
5,3,6,6,1,3,0,4,1.4705e+15,1
13,6,0,0,0,1,2,4,1.4705e+15,1
2,2,0,1,1,0,4,3,1.4705e+15,1
6,0,2,1,1,1,0,1,1.4705e+15,1
21,9,1,1,1,2,3,5,1.4705e+15,1
19,6,1,2,1,3,2,6,1.4705e+15,1
0,2,3,1,0,3,2,0,1.4705e+15,1
15,1,1,0,0,2,0,0,1.4705e+15,1
1,4,1,1,0,2,1,1,1.4705e+15,1
19,6,3,1,1,3,3,4,1.4705e+15,1
1,2,1,1,2,1,7,2,1.4705e+15,1
1,3,1,3,2,1,9,3,1.4705e+15,1
0,7,3,1,4,9,25,5,1.4705e+15,1
7,2,0,2,2,1,5,2,1.4705e+15,1
12,4,4,0,1,0,3,2,1.4705e+15,1
1,1,1,2,1,2,6,1,1.4705e+15,1
10,4,3,1,1,3,13,1,1.4705e+15,1
15,3,7,2,3,1,3,1,1.4705e+15,1
9,0,1,0,2,0,12,2,1.4705e+15,1
4,3,3,4,4,2,9,3,1.4705e+15,1
8,7,4,2,0,4,3,0,1.4705e+15,1
17,12,9,4,1,4,4,6,1.4705e+15,1
5,0,2,2,0,3,19,3,1.4705e+15,1
13,1,2,1,2,1,2,0,1.4705e+15,1
8,3,3,2,3,7,12,6,1.4705e+15,1
21,7,0,3,3,3,11,5,1.4705e+15,1
13,5,8,4,1,4,7,6,1.4705e+15,1
8,2,3,4,3,2,9,2,1.4705e+15,1
0,3,2,2,3,5,9,3,1.4705e+15,1
2,3,0,0,1,1,5,1,1.4705e+15,1
17,0,1,1,1,6,4,6,1.4705e+15,1
13,4,2,3,1,8,1,2,1.4705e+15,1
0,4,2,3,2,3,10,1,1.4705e+15,1
11,1,4,3,2,2,5,3,1.4705e+15,1
24,2,1,0,2,10,9,6,1.4705e+15,1
2,3,3,0,1,1,8,2,1.4705e+15,1
1,4,4,1,0,0,6,2,1.4705e+15,1
3,6,6,5,3,3,1,1,1.4705e+15,1
0,7,4,1,1,8,16,1,1.4705e+15,1
9,3,3,3,1,5,9,3,1.4705e+15,1
3,0,2,2,2,4,24,8,1.4705e+15,1
0,3,1,1,3,7,7,7,1.4705e+15,1
18,8,2,1,1,7,7,6,1.4705e+15,1
6,0,4,2,0,16,37,3,1.4705e+15,1
6,3,0,1,2,6,31,3,1.4705e+15,1
11,1,3,2,2,9,15,7,1.4705e+15,1
6,9,3,4,10,15,21,8,1.4705e+15,1
4,2,3,33,52,19,7,3,1.4705e+15,1
16,3,1,39,80,13,1,7,1.4705e+15,1
0,2,1,2,20,2,10,3,1.4705e+15,1
12,5,0,6,26,9,42,3,1.4705e+15,1
38,13,7,5,42,1,2,1,1.4705e+15,1
12,3,3,19,28,4,22,4,1.4705e+15,1
4,4,8,31,94,21,14,6,1.4705e+15,1
5,12,8,4,12,10,29,5,1.4705e+15,1
3,6,1,7,14,7,0,7,1.4705e+15,1
5,6,4,19,44,14,6,2,1.4705e+15,1
8,1,1,4,13,1,10,1,1.4705e+15,1
7,2,1,7,11,17,50,18,1.4705e+15,1
1,1,0,7,15,6,9,4,1.4705e+15,1
24,9,4,4,8,10,34,6,1.4705e+15,1
31,6,3,14,18,5,22,3,1.4705e+15,1
18,4,4,6,6,6,15,8,1.4705e+15,1
12,5,0,4,13,5,7,0,1.4705e+15,1
14,0,1,0,0,6,30,1,1.4705e+15,1
18,7,3,4,9,12,42,6,1.4705e+15,1
21,3,5,5,6,15,23,5,1.4705e+15,1
4,8,7,0,11,3,33,9,1.4705e+15,1
4,3,9,0,5,13,16,7,1.4705e+15,1
11,6,0,1,13,6,19,2,1.4705e+15,1
5,7,8,3,4,19,61,24,1.4705e+15,1
37,17,5,2,13,2,24,17,1.4705e+15,1
10,17,3,2,0,13,50,3,1.4705e+15,1
9,24,3,6,15,5,22,17,1.4705e+15,1
1,1,3,4,1,4,33,5,1.4705e+15,1
5,4,0,0,1,13,22,7,1.4705e+15,1
12,3,0,2,6,16,13,7,1.4705e+15,1
19,0,6,7,5,19,36,7,1.4705e+15,1
8,1,3,6,49,4,1,5,1.4705e+15,1
8,4,6,9,6,8,48,13,1.4705e+15,1
3,3,3,5,11,9,43,4,1.4705e+15,1
4,6,3,2,24,13,20,6,1.4705e+15,1
10,10,4,6,3,3,10,6,1.4705e+15,1
7,9,2,0,8,4,37,23,1.4705e+15,1
8,10,2,0,6,16,74,19,1.4705e+15,1
5,1,1,11,21,21,55,10,1.4705e+15,1
7,2,1,3,14,3,4,3,1.4705e+15,1
16,5,1,2,12,0,19,0,1.4705e+15,1
16,3,2,0,6,27,81,26,1.4705e+15,1
6,8,5,2,1,11,49,13,1.4705e+15,1
3,12,5,1,6,7,2,9,1.4705e+15,1
17,4,1,3,5,22,88,24,1.4705e+15,1
7,7,1,5,7,13,17,1,1.4705e+15,1
1,2,6,11,23,33,16,10,1.4705e+15,1
6,2,1,6,24,18,33,13,1.4705e+15,1
21,8,1,2,2,0,21,1,1.4705e+15,1
10,4,7,10,22,6,42,3,1.4705e+15,1
0,0,1,9,28,15,20,3,1.4705e+15,1
8,0,1,11,20,2,29,9,1.4705e+15,1
5,3,1,8,10,8,44,17,1.4705e+15,1
9,2,3,8,10,15,14,6,1.4705e+15,1
6,0,3,8,7,33,58,19,1.4705e+15,1
16,2,1,1,6,26,26,17,1.4705e+15,1
3,1,4,10,32,5,1,19,1.4705e+15,1
7,7,5,3,33,3,22,13,1.4705e+15,1
15,1,3,0,11,15,49,1,1.4705e+15,1
6,2,0,1,15,16,56,7,1.4705e+15,1
14,4,4,4,21,2,10,15,1.4705e+15,1
13,9,13,7,16,24,68,26,1.4705e+15,1
28,11,9,10,7,4,4,7,1.4705e+15,1
0,5,6,12,2,4,0,4,1.4705e+15,1
20,7,7,8,9,6,8,1,1.4705e+15,1
16,10,4,6,7,7,48,18,1.4705e+15,1
4,5,2,1,18,10,37,8,1.4705e+15,1
35,11,5,31,105,19,51,1,1.4705e+15,1
2,3,5,33,96,0,72,12,1.4705e+15,1
14,6,0,6,52,8,87,17,1.4705e+15,1
28,2,0,10,1,30,57,31,1.4705e+15,1
26,11,11,8,31,6,35,4,1.4705e+15,1
10,12,6,1,13,20,56,4,1.4705e+15,1
12,2,3,8,30,12,36,14,1.4705e+15,1
13,1,6,9,9,6,34,10,1.4705e+15,1
11,2,1,6,30,2,29,6,1.4705e+15,1
2,7,1,3,68,31,56,7,1.4705e+15,1
49,21,6,14,45,2,37,2,1.4705e+15,1
25,13,1,22,96,51,88,28,1.4705e+15,1
0,7,5,32,115,11,7,4,1.4705e+15,1
2,2,2,13,5,38,17,3,1.4705e+15,1
2,6,4,13,22,7,110,23,1.4705e+15,1
76,12,1,16,18,8,58,22,1.4705e+15,1
86,28,12,15,8,22,41,9,1.4705e+15,1
4,1,4,9,15,15,15,2,1.4705e+15,1
1,11,3,30,27,67,82,4,1.4705e+15,1
11,1,15,3,28,17,89,37,1.4705e+15,1
24,0,9,8,35,19,17,11,1.4705e+15,1
3,0,5,11,5,54,95,20,1.4705e+15,1
2,19,9,34,83,71,100,24,1.4705e+15,1
22,1,11,9,37,12,68,83,1.4705e+15,1
16,7,8,20,29,78,54,77,1.4705e+15,1
14,6,5,0,8,48,36,46,1.4705e+15,1
27,19,11,18,12,36,21,24,1.4705e+15,1
50,48,19,18,35,72,114,38,1.4705e+15,1
32,16,11,5,64,19,42,106,1.4705e+15,1
15,16,4,0,50,2,50,33,1.4705e+15,1
26,23,8,19,115,47,57,10,1.4705e+15,1
43,6,7,17,3,10,14,12,1.4705e+15,1
21,4,2,9,15,20,85,13,1.4705e+15,1
24,8,16,9,44,10,5,91,1.4705e+15,1
58,26,6,28,37,22,80,105,1.4705e+15,1
17,1,1,6,3,29,102,71,1.4705e+15,1
26,3,4,32,115,34,19,21,1.4705e+15,1
24,0,16,32,26,20,29,2,1.4705e+15,1
19,6,16,8,77,31,54,43,1.4705e+15,1
11,18,2,6,27,74,87,3,1.4705e+15,1
23,14,6,5,58,93,77,29,1.4705e+15,1
6,5,7,5,30,78,60,51,1.4705e+15,1
9,12,13,15,13,25,102,58,1.4705e+15,1
37,1,3,1,51,11,3,96,1.4705e+15,1
12,4,2,1,51,20,13,34,1.4705e+15,1
2,2,3,1,36,6,105,65,1.4705e+15,1
20,4,3,14,65,49,128,75,1.4705e+15,1
12,19,3,16,13,11,71,30,1.4705e+15,1
15,38,14,14,52,30,59,20,1.4705e+15,1
28,45,3,17,87,94,121,62,1.4705e+15,1
25,17,3,6,64,99,128,39,1.4705e+15,1
46,8,2,2,10,69,97,71,1.4705e+15,1
11,16,13,8,21,12,32,29,1.4705e+15,1
48,37,1,8,86,23,80,5,1.4705e+15,1
61,2,19,12,67,127,117,127,1.4705e+15,1
49,20,29,7,30,88,118,87,1.4705e+15,1
29,4,20,8,23,6,100,94,1.4705e+15,1
14,18,5,14,87,8,63,8,1.4705e+15,1
6,4,2,25,99,55,81,20,1.4705e+15,1
27,26,14,19,26,37,11,3,1.4705e+15,1
3,19,3,4,2,2,90,14,1.4705e+15,1
20,3,4,6,45,14,88,4,1.4705e+15,1
8,4,2,3,43,59,41,53,1.4705e+15,1
9,3,10,20,5,48,18,37,1.4705e+15,1
5,10,13,4,7,13,23,29,1.4705e+15,1
22,14,5,10,8,22,78,10,1.4705e+15,1
18,14,10,6,60,35,57,57,1.4705e+15,1
17,7,16,13,127,24,10,24,1.4705e+15,1
1,17,26,8,16,9,18,30,1.4705e+15,1
4,5,7,11,26,47,44,39,1.4705e+15,1
31,9,11,15,66,72,72,47,1.4705e+15,1
13,6,13,18,38,58,43,44,1.4705e+15,1
13,3,24,34,73,99,37,44,1.4705e+15,1
3,1,4,32,83,83,21,16,1.4705e+15,1
33,52,23,32,39,12,119,67,1.4705e+15,1
14,4,5,29,103,54,8,53,1.4705e+15,1
12,29,3,17,55,12,107,90,1.4705e+15,1
18,1,1,1,50,46,85,38,1.4705e+15,1
41,2,9,84,76,36,88,80,1.4705e+15,1
19,28,21,44,38,7,111,3,1.4705e+15,1
14,72,0,16,23,56,79,86,1.4705e+15,1
55,13,5,15,83,128,35,108,1.4705e+15,1
4,10,1,22,23,51,94,58,1.4705e+15,1
28,44,32,92,127,127,127,127,1.4705e+15,1
21,15,14,35,87,86,97,1,1.4705e+15,1
19,41,25,53,9,71,89,49,1.4705e+15,1
13,63,15,16,42,60,22,74,1.4705e+15,1
61,62,5,41,37,68,58,15,1.4705e+15,1
77,6,39,10,51,105,62,101,1.4705e+15,1
6,20,8,39,57,91,103,95,1.4705e+15,1
28,30,4,31,123,100,59,48,1.4705e+15,1
43,14,27,10,39,117,64,26,1.4705e+15,1
15,16,3,27,107,49,96,62,1.4705e+15,1
70,33,25,46,38,14,69,76,1.4705e+15,1
26,10,12,1,123,41,96,93,1.4705e+15,1
50,13,12,13,53,41,95,69,1.4705e+15,1
7,7,31,15,21,49,11,55,1.4705e+15,1
15,15,15,26,1,67,87,56,1.4705e+15,1
5,6,12,16,17,64,76,3,1.4705e+15,1
79,3,21,14,58,90,127,119,1.4705e+15,1
9,18,41,48,87,62,48,122,1.4705e+15,1
18,37,6,18,40,58,89,47,1.4705e+15,1
3,40,22,34,87,15,60,95,1.4705e+15,1
52,39,32,87,1,99,122,26,1.4705e+15,1
29,8,29,76,68,16,54,110,1.4705e+15,1
5,59,20,38,72,28,22,2,1.4705e+15,1
4,5,8,20,15,7,91,65,1.4705e+15,1
76,85,15,47,72,37,127,27,1.4705e+15,1
28,76,7,49,77,6,85,87,1.4705e+15,1
1,30,21,29,35,8,35,19,1.4705e+15,1
17,7,1,12,83,127,65,48,1.4705e+15,1
16,22,12,24,31,23,22,20,1.4705e+15,1
9,40,3,8,76,14,25,37,1.4705e+15,1
36,17,23,50,79,77,92,35,1.4705e+15,1
20,19,14,22,10,42,49,52,1.4705e+15,1
11,1,3,4,21,31,69,13,1.4705e+15,1
15,4,11,12,27,65,44,58,1.4705e+15,1
1,54,32,37,12,30,11,58,1.4705e+15,1
8,57,45,71,127,37,33,125,1.4705e+15,1
52,26,17,28,72,40,4,0,1.4705e+15,1
34,13,6,38,70,92,127,86,1.4705e+15,1
41,21,2,38,18,14,62,12,1.4705e+15,1
39,13,30,18,102,52,37,107,1.4705e+15,1
68,46,29,38,24,38,6,101,1.4705e+15,1
4,20,16,7,35,73,119,14,1.4705e+15,1
1,12,35,31,42,86,56,67,1.4705e+15,1
12,39,0,10,35,7,42,6,1.4705e+15,1
12,5,20,31,121,27,12,6,1.4705e+15,1
11,5,6,11,64,3,27,15,1.4705e+15,1
28,1,12,47,91,33,52,50,1.4705e+15,1
33,10,1,12,20,37,68,53,1.4705e+15,1
12,14,9,31,20,17,32,37,1.4705e+15,1
24,16,8,10,14,3,54,92,1.4705e+15,1
1,4,11,16,22,38,70,96,1.4705e+15,1
25,6,5,56,27,12,118,44,1.4705e+15,1
34,16,7,29,15,43,37,36,1.4705e+15,1
3,3,5,6,56,76,99,74,1.4705e+15,1
22,1,3,22,40,9,7,53,1.4705e+15,1
20,0,6,21,12,19,8,31,1.4705e+15,1
16,6,17,14,49,66,72,55,1.4705e+15,1
15,11,12,8,67,59,49,0,1.4705e+15,1
27,2,6,2,12,25,51,16,1.4705e+15,1
45,14,13,6,62,16,115,36,1.4705e+15,1
25,2,5,45,18,53,40,1,1.4705e+15,1
15,9,9,52,102,3,7,24,1.4705e+15,1
59,11,9,49,6,92,21,36,1.4705e+15,1
15,20,12,71,127,74,22,49,1.4705e+15,1
14,12,12,7,51,17,1,14,1.4705e+15,1
8,6,0,12,53,23,20,13,1.4705e+15,1
31,17,17,18,6,3,29,2,1.4705e+15,1
67,9,4,36,96,10,24,17,1.4705e+15,1
57,21,28,51,70,25,2,10,1.4705e+15,1
40,14,13,16,41,26,27,12,1.4705e+15,1
30,9,6,5,32,38,19,11,1.4705e+15,1
45,17,11,1,17,90,11,7,1.4705e+15,1
25,13,1,8,2,127,4,13,1.4705e+15,1
82,30,4,6,13,127,22,13,1.4705e+15,1
19,3,5,12,20,101,13,14,1.4705e+15,1
34,5,5,7,4,24,4,39,1.4705e+15,1
45,24,10,6,4,76,1,18,1.4705e+15,1
47,68,10,10,17,128,15,40,1.4705e+15,1
2,26,17,9,5,111,19,5,1.4705e+15,1
56,1,2,8,10,128,12,9,1.4705e+15,1
15,2,1,3,10,104,7,10,1.4705e+15,1
60,9,2,3,28,128,10,7,1.4705e+15,1
54,15,7,0,26,128,11,21,1.4705e+15,1
6,5,8,4,1,69,2,56,1.4705e+15,1
52,14,1,4,13,107,6,5,1.4705e+15,1
8,16,2,0,4,88,5,1,1.4705e+15,1
6,0,4,6,4,34,1,2,1.4705e+15,1
28,16,9,2,13,67,10,13,1.4705e+15,1
15,7,1,7,8,9,11,0,1.4705e+15,1
4,16,8,2,18,10,11,20,1.4705e+15,1
3,8,2,7,7,13,11,7,1.4705e+15,1
33,9,5,14,13,28,0,0,1.4705e+15,1
12,6,2,8,1,78,3,7,1.4705e+15,1
48,26,8,15,4,8,2,12,1.4705e+15,1
27,3,9,1,10,11,2,9,1.4705e+15,1
9,2,1,16,6,22,1,4,1.4705e+15,1
3,3,11,18,4,6,6,3,1.4705e+15,1
2,7,2,3,0,8,1,6,1.4705e+15,1
9,16,11,9,3,24,6,11,1.4705e+15,1
4,19,8,4,1,7,16,7,1.4705e+15,1
43,23,6,4,4,12,3,5,1.4705e+15,1
33,4,2,1,2,25,7,2,1.4705e+15,1
19,6,13,5,1,7,12,8,1.4705e+15,1
21,1,3,1,7,9,5,11,1.4705e+15,1
5,5,3,5,2,11,8,3,1.4705e+15,1
11,8,2,0,0,14,3,4,1.4705e+15,1
8,3,3,5,2,22,0,0,1.4705e+15,1
13,2,4,0,5,6,2,0,1.4705e+15,1
21,4,5,7,8,9,0,5,1.4705e+15,1
8,0,4,7,2,22,2,1,1.4705e+15,1
14,3,4,3,3,4,0,3,1.4705e+15,1
12,1,5,5,2,1,0,4,1.4705e+15,1
31,3,2,0,13,1,1,6,1.4705e+15,1
80,16,10,8,1,1,6,10,1.4705e+15,1
32,2,6,5,0,7,0,0,1.4705e+15,1
5,4,0,1,7,1,10,6,1.4705e+15,1
61,3,7,3,3,5,6,6,1.4705e+15,1
89,24,11,6,4,76,14,13,1.4705e+15,1
1,14,11,3,6,61,11,12,1.4705e+15,1
57,30,16,6,6,21,17,22,1.4705e+15,1
90,26,15,6,4,17,1,14,1.4705e+15,1
8,7,4,8,6,42,4,3,1.4705e+15,1
17,3,3,3,3,22,7,1,1.4705e+15,1
13,4,7,3,1,15,4,7,1.4705e+15,1
42,4,5,6,0,26,9,6,1.4705e+15,1
48,4,6,6,4,16,9,0,1.4705e+15,1
24,8,6,0,5,19,4,2,1.4705e+15,1
43,12,7,0,1,4,0,11,1.4705e+15,1
60,16,5,3,4,10,3,20,1.4705e+15,1
49,23,6,3,4,10,1,15,1.4705e+15,1
47,28,10,5,6,4,8,28,1.4705e+15,1
27,7,4,2,0,5,6,9,1.4705e+15,1
14,5,1,4,6,8,2,3,1.4705e+15,1
10,3,2,1,0,12,4,1,1.4705e+15,1
31,4,3,3,0,10,5,2,1.4705e+15,1
8,5,0,3,4,7,3,0,1.4705e+15,1
6,7,8,4,3,13,2,8,1.4705e+15,1
30,0,0,2,0,11,5,4,1.4705e+15,1
18,7,1,3,2,2,3,10,1.4705e+15,1
22,11,1,2,1,1,7,13,1.4705e+15,1
9,6,3,2,3,14,6,9,1.4705e+15,1
37,9,9,3,1,10,4,12,1.4705e+15,1
30,10,7,4,1,2,2,6,1.4705e+15,1
42,19,7,5,4,10,10,22,1.4705e+15,1
83,61,25,10,8,10,12,41,1.4705e+15,1
6,3,0,4,2,7,6,1,1.4705e+15,1
19,7,1,4,1,20,1,8,1.4705e+15,1
11,6,1,2,2,4,3,8,1.4705e+15,2
35,6,5,2,1,1,2,4,1.4705e+15,2
18,1,2,5,3,3,3,5,1.4705e+15,2
27,5,2,1,0,4,5,6,1.4705e+15,2
15,2,2,1,2,6,2,5,1.4705e+15,2
5,4,2,1,1,1,1,1,1.4705e+15,2
16,4,1,1,1,1,2,1,1.4705e+15,2
18,4,1,0,1,1,2,2,1.4705e+15,2
35,9,4,1,3,4,4,11,1.4705e+15,2
8,0,2,2,0,3,2,2,1.4705e+15,2
2,2,8,2,1,6,4,4,1.4705e+15,2
1,6,9,5,4,4,3,3,1.4705e+15,2
28,4,3,1,2,3,1,2,1.4705e+15,2
5,2,2,2,1,3,1,2,1.4705e+15,2
22,2,3,1,1,6,1,1,1.4705e+15,2
1,2,1,0,0,2,2,0,1.4705e+15,2
21,6,4,1,2,2,2,7,1.4705e+15,2
2,2,1,1,3,0,1,1,1.4705e+15,2
20,3,5,2,4,7,5,1,1.4705e+15,2
3,0,4,3,0,7,2,2,1.4705e+15,2
23,1,0,1,4,4,4,1,1.4705e+15,2
19,6,3,0,1,2,0,1,1.4705e+15,2
16,3,3,3,1,2,2,6,1.4705e+15,2
2,3,1,1,1,2,3,2,1.4705e+15,2
8,2,2,2,1,0,2,6,1.4705e+15,2
0,1,1,0,1,2,2,0,1.4705e+15,2
23,9,2,1,0,3,2,2,1.4705e+15,2
3,2,3,4,3,2,5,5,1.4705e+15,2
3,1,2,1,1,2,2,2,1.4705e+15,2
1,2,2,1,0,9,1,3,1.4705e+15,2
2,3,2,2,1,21,6,1,1.4705e+15,2
32,3,3,1,1,1,1,3,1.4705e+15,2
18,6,7,5,2,2,4,0,1.4705e+15,2
6,2,0,1,3,3,6,5,1.4705e+15,2
7,2,0,3,2,7,1,2,1.4705e+15,2
4,1,4,1,1,2,0,4,1.4705e+15,2
20,2,4,4,2,3,1,0,1.4705e+15,2
1,1,3,2,1,1,1,3,1.4705e+15,2
14,6,0,2,3,2,2,2,1.4705e+15,2
14,6,0,1,2,6,3,0,1.4705e+15,2
11,1,4,2,2,5,1,3,1.4705e+15,2
21,8,4,4,1,9,4,4,1.4705e+15,2
6,1,2,1,1,2,0,2,1.4705e+15,2
4,4,2,1,1,0,1,5,1.4705e+15,2
1,1,1,0,1,0,0,1,1.4705e+15,2
0,2,3,4,0,2,2,3,1.4705e+15,2
1,5,8,4,1,0,2,1,1.4705e+15,2
23,9,2,0,1,2,1,1,1.4705e+15,2
5,1,4,4,2,5,3,2,1.4705e+15,2
5,1,5,5,2,3,0,2,1.4705e+15,2
2,4,5,0,1,3,1,4,1.4705e+15,2
0,2,1,4,1,2,3,0,1.4705e+15,2
0,2,6,8,4,0,1,1,1.4705e+15,2
8,3,1,4,4,2,0,3,1.4705e+15,2
5,1,0,0,3,2,1,2,1.4705e+15,2
7,0,4,4,2,4,3,0,1.4705e+15,2
3,2,2,4,2,0,3,4,1.4705e+15,2
6,5,3,4,1,2,2,0,1.4705e+15,2
32,5,0,0,1,1,2,5,1.4705e+15,2
13,3,2,1,2,3,1,9,1.4705e+15,2
11,0,4,2,1,1,1,3,1.4705e+15,2
2,2,1,0,0,1,3,4,1.4705e+15,2
8,1,2,1,1,4,4,3,1.4705e+15,2
20,6,2,0,2,2,2,1,1.4705e+15,2
33,8,7,5,3,6,1,3,1.4705e+15,2
9,3,2,3,2,8,6,3,1.4705e+15,2
6,3,0,0,1,3,2,2,1.4705e+15,2
8,1,1,1,2,1,3,1,1.4705e+15,2
4,5,3,1,2,4,1,2,1.4705e+15,2
10,6,0,3,3,1,3,0,1.4705e+15,2
6,2,1,1,1,0,2,1,1.4705e+15,2
3,2,1,3,1,1,1,1,1.4705e+15,2
16,5,5,4,0,11,1,2,1.4705e+15,2
17,7,8,4,0,15,4,5,1.4705e+15,2
15,2,2,2,3,6,5,3,1.4705e+15,2
8,4,3,5,3,3,5,4,1.4705e+15,2
1,2,3,1,1,4,1,1,1.4705e+15,2
12,3,3,2,0,6,1,1,1.4705e+15,2
9,1,2,3,1,3,0,2,1.4705e+15,2
10,6,4,1,2,2,0,3,1.4705e+15,2
13,2,4,4,1,2,1,5,1.4705e+15,2
15,1,2,0,1,0,2,2,1.4705e+15,2
7,4,1,2,1,2,5,4,1.4705e+15,2
8,1,0,1,0,4,0,1,1.4705e+15,2
14,3,1,1,1,1,1,2,1.4705e+15,2
8,1,4,4,3,1,0,2,1.4705e+15,2
14,5,1,1,0,3,2,3,1.4705e+15,2
2,2,1,0,0,2,2,5,1.4705e+15,2
31,5,2,2,1,1,0,4,1.4705e+15,2
20,0,4,3,2,1,0,4,1.4705e+15,2
1,3,2,1,1,0,0,2,1.4705e+15,2
7,1,1,1,1,1,3,1,1.4705e+15,2
20,10,4,2,2,1,0,3,1.4705e+15,2
8,2,2,3,2,4,3,3,1.4705e+15,2
22,4,3,2,1,1,0,2,1.4705e+15,2
13,1,1,1,1,2,0,1,1.4705e+15,2
21,3,3,2,1,3,1,0,1.4705e+15,2
17,4,2,2,1,1,1,2,1.4705e+15,2
6,1,3,3,1,0,0,0,1.4705e+15,2
4,3,6,1,1,0,1,2,1.4705e+15,2
15,1,1,2,1,2,0,1,1.4705e+15,2
8,3,2,0,1,3,3,1,1.4705e+15,2
16,2,3,1,0,1,1,0,1.4705e+15,2
7,0,2,2,2,4,2,3,1.4705e+15,2
30,5,1,1,1,2,0,4,1.4705e+15,2
31,6,3,2,1,0,1,7,1.4705e+15,2
20,4,1,0,1,1,1,0,1.4705e+15,2
6,5,1,1,0,2,0,2,1.4705e+15,2
3,3,4,2,1,2,1,2,1.4705e+15,2
3,4,4,3,2,1,2,5,1.4705e+15,2
18,0,1,1,1,1,1,2,1.4705e+15,2
10,3,4,2,2,2,2,0,1.4705e+15,2
8,1,2,1,1,0,1,1,1.4705e+15,2
4,1,1,0,1,0,2,1,1.4705e+15,2
2,0,0,2,2,1,1,1,1.4705e+15,2
9,2,1,1,0,1,1,1,1.4705e+15,2
1,1,3,1,1,1,2,0,1.4705e+15,2
10,7,2,1,2,7,5,5,1.4705e+15,2
23,3,2,3,2,3,2,0,1.4705e+15,2
7,5,0,1,2,4,0,0,1.4705e+15,2
13,7,3,2,2,4,4,4,1.4705e+15,2
4,1,0,0,0,2,1,3,1.4705e+15,2
4,1,0,4,1,1,1,3,1.4705e+15,2
9,2,0,3,2,6,3,0,1.4705e+15,2
15,2,3,2,15,45,6,5,1.4705e+15,2
18,4,2,2,4,7,1,5,1.4705e+15,2
12,1,1,4,5,10,1,1,1.4705e+15,2
10,3,7,4,2,4,1,2,1.4705e+15,2
32,8,5,5,2,11,5,4,1.4705e+15,2
8,6,2,1,2,6,1,3,1.4705e+15,2
2,0,1,1,0,4,1,2,1.4705e+15,2
19,2,4,4,2,7,1,8,1.4705e+15,2
11,1,4,4,1,1,4,10,1.4705e+15,2
28,6,2,4,2,0,1,3,1.4705e+15,2
0,2,0,1,2,4,1,2,1.4705e+15,2
19,8,4,0,2,5,2,6,1.4705e+15,2
14,10,5,1,1,18,6,5,1.4705e+15,2
0,2,3,3,3,22,6,2,1.4705e+15,2
11,8,1,0,5,5,3,7,1.4705e+15,2
3,6,5,3,0,1,0,3,1.4705e+15,2
14,1,1,0,2,8,6,3,1.4705e+15,2
6,0,4,4,3,8,2,3,1.4705e+15,2
9,3,1,3,0,8,4,4,1.4705e+15,2
12,9,5,2,1,7,5,11,1.4705e+15,2
27,8,1,0,0,2,1,4,1.4705e+15,2
22,7,4,1,2,5,3,5,1.4705e+15,2
4,4,2,0,1,6,3,2,1.4705e+15,2
7,9,4,3,2,2,1,1,1.4705e+15,2
2,3,3,3,3,7,1,1,1.4705e+15,2
15,3,1,1,1,31,9,2,1.4705e+15,2
9,4,2,3,2,25,2,3,1.4705e+15,2
27,4,7,6,3,1,4,4,1.4705e+15,2
17,4,3,1,1,2,5,0,1.4705e+15,2
4,0,1,2,2,12,5,0,1.4705e+15,2
31,6,1,1,2,4,1,3,1.4705e+15,2
2,4,0,0,0,10,4,2,1.4705e+15,2
0,2,1,2,0,6,0,0,1.4705e+15,2
21,2,1,0,1,4,4,4,1.4705e+15,2
2,1,1,2,2,13,3,4,1.4705e+15,2
1,8,4,3,1,8,1,2,1.4705e+15,2
5,2,2,1,4,10,5,4,1.4705e+15,2
32,1,4,2,6,33,6,4,1.4705e+15,2
6,5,0,3,2,6,2,2,1.4705e+15,2
12,0,2,3,1,15,6,0,1.4705e+15,2
25,5,1,0,0,6,1,1,1.4705e+15,2
19,4,5,2,2,10,2,2,1.4705e+15,2
29,8,7,1,0,2,1,2,1.4705e+15,2
22,9,5,1,2,9,5,3,1.4705e+15,2
5,15,7,2,6,6,1,3,1.4705e+15,2
1,3,6,0,1,9,3,3,1.4705e+15,2
5,6,7,0,7,2,3,15,1.4705e+15,2
36,12,4,2,3,4,20,9,1.4705e+15,2
17,4,2,1,10,65,45,14,1.4705e+15,2
33,9,2,2,1,10,11,1,1.4705e+15,2
39,19,2,11,5,37,4,7,1.4705e+15,2
16,4,1,6,7,23,10,8,1.4705e+15,2
17,1,2,0,2,4,4,3,1.4705e+15,2
11,2,2,1,4,10,6,3,1.4705e+15,2
21,6,3,3,2,1,13,6,1.4705e+15,2
61,17,12,4,5,14,17,3,1.4705e+15,2
11,8,1,2,2,2,7,13,1.4705e+15,2
6,1,2,3,5,19,3,6,1.4705e+15,2
30,6,6,4,2,7,9,2,1.4705e+15,2
7,9,2,1,4,10,30,16,1.4705e+15,2
29,10,5,0,5,30,10,12,1.4705e+15,2
21,11,6,4,4,6,9,2,1.4705e+15,2
18,18,3,4,11,21,15,5,1.4705e+15,2
11,6,2,4,15,24,8,8,1.4705e+15,2
29,2,1,4,21,27,11,7,1.4705e+15,2
23,2,1,7,2,1,20,1,1.4705e+15,2
37,8,1,4,8,14,25,1,1.4705e+15,2
33,7,6,3,5,13,1,5,1.4705e+15,2
46,11,4,3,3,22,17,11,1.4705e+15,2
48,9,4,0,3,9,2,3,1.4705e+15,2
31,19,3,8,0,21,3,15,1.4705e+15,2
20,6,6,8,9,6,13,2,1.4705e+15,2
15,4,4,1,5,7,1,7,1.4705e+15,2
8,1,4,13,43,4,1,20,1.4705e+15,2
33,4,0,5,6,11,1,9,1.4705e+15,2
11,3,2,2,16,2,5,5,1.4705e+15,2
6,1,2,12,33,3,7,18,1.4705e+15,2
36,5,3,4,16,21,3,43,1.4705e+15,2
4,15,4,10,51,16,1,6,1.4705e+15,2
31,9,1,5,12,6,8,22,1.4705e+15,2
33,11,4,1,4,10,4,10,1.4705e+15,2
17,12,9,7,4,6,18,1,1.4705e+15,2
43,8,4,2,12,4,6,18,1.4705e+15,2
6,1,11,9,19,47,6,3,1.4705e+15,2
21,12,7,9,13,19,0,19,1.4705e+15,2
16,1,3,4,6,13,1,35,1.4705e+15,2
2,5,11,8,11,18,22,27,1.4705e+15,2
35,22,6,4,24,29,25,20,1.4705e+15,2
29,7,3,12,27,25,6,2,1.4705e+15,2
18,2,1,1,7,16,5,3,1.4705e+15,2
38,19,11,4,6,33,0,14,1.4705e+15,2
30,18,5,2,7,21,40,56,1.4705e+15,2
7,6,9,1,21,2,31,27,1.4705e+15,2
49,18,5,15,35,21,45,11,1.4705e+15,2
16,15,7,3,18,15,17,2,1.4705e+15,2
39,4,1,2,4,10,4,2,1.4705e+15,2
48,13,9,2,9,10,31,3,1.4705e+15,2
29,19,6,4,9,3,9,3,1.4705e+15,2
11,5,5,8,14,0,4,14,1.4705e+15,2
54,13,7,8,28,6,7,24,1.4705e+15,2
26,7,8,0,7,5,13,24,1.4705e+15,2
7,6,7,5,3,2,8,7,1.4705e+15,2
11,8,0,0,3,9,12,14,1.4705e+15,2
19,9,8,1,13,7,9,19,1.4705e+15,2
44,18,10,1,0,10,16,19,1.4705e+15,2
33,3,5,2,2,1,1,12,1.4705e+15,2
12,18,6,1,15,3,4,12,1.4705e+15,2
14,11,5,6,8,8,16,17,1.4705e+15,2
20,11,11,5,4,8,3,15,1.4705e+15,2
2,9,11,1,0,2,4,4,1.4705e+15,2
30,3,7,4,4,7,2,15,1.4705e+15,2
32,4,12,7,6,5,6,16,1.4705e+15,2
28,2,1,0,1,3,16,7,1.4705e+15,2
19,9,7,1,4,2,13,3,1.4705e+15,2
20,23,14,9,20,2,6,2,1.4705e+15,2
5,19,18,13,18,13,12,20,1.4705e+15,2
0,3,4,4,1,6,12,20,1.4705e+15,2
14,1,6,5,3,4,14,12,1.4705e+15,2
28,13,8,5,2,6,20,20,1.4705e+15,2
8,6,5,9,3,3,6,1,1.4705e+15,2
8,5,7,9,3,2,5,1,1.4705e+15,2
17,1,4,3,3,5,1,3,1.4705e+15,2
19,3,1,2,3,6,18,5,1.4705e+15,2
23,1,0,1,4,11,4,4,1.4705e+15,2
48,18,18,11,12,32,32,25,1.4705e+15,2
22,14,0,1,4,10,18,2,1.4705e+15,2
5,3,2,3,4,1,26,5,1.4705e+15,2
9,8,6,3,2,6,6,3,1.4705e+15,2
25,12,2,4,1,6,15,3,1.4705e+15,2
12,2,8,9,6,4,34,2,1.4705e+15,2
18,8,8,9,8,3,1,35,1.4705e+15,2
30,25,6,4,4,4,1,7,1.4705e+15,2
15,15,8,5,8,21,10,26,1.4705e+15,2
20,9,8,8,11,23,14,48,1.4705e+15,2
21,4,10,9,10,3,8,16,1.4705e+15,2
22,6,7,7,11,6,19,5,1.4705e+15,2
17,4,14,2,3,5,9,4,1.4705e+15,2
4,2,0,6,2,2,2,16,1.4705e+15,2
12,5,26,8,2,1,18,12,1.4705e+15,2
14,10,6,9,10,13,11,19,1.4705e+15,2
2,3,6,3,1,3,10,12,1.4705e+15,2
13,2,9,4,6,5,8,1,1.4705e+15,2
28,5,9,16,11,14,6,3,1.4705e+15,2
2,25,12,7,1,2,4,6,1.4705e+15,2
34,46,10,10,12,7,13,15,1.4705e+15,2
41,2,2,3,5,4,7,7,1.4705e+15,2
3,13,5,1,4,4,7,16,1.4705e+15,2
8,2,5,10,8,7,19,30,1.4705e+15,2
21,3,4,4,1,1,0,16,1.4705e+15,2
5,6,8,0,4,6,1,8,1.4705e+15,2
20,11,12,1,2,12,11,14,1.4705e+15,2
9,6,4,0,1,1,6,15,1.4705e+15,2
4,10,9,8,13,8,7,4,1.4705e+15,2
8,12,1,0,6,10,9,0,1.4705e+15,2
30,9,0,9,16,12,0,32,1.4705e+15,2
33,11,5,5,5,10,14,25,1.4705e+15,2
4,19,5,9,3,2,6,16,1.4705e+15,2
19,7,2,6,8,3,2,0,1.4705e+15,2
4,3,6,8,1,3,4,8,1.4705e+15,2
16,10,9,3,16,9,6,16,1.4705e+15,2
19,6,12,15,13,10,9,0,1.4705e+15,2
5,23,16,8,3,2,4,2,1.4705e+15,2
5,10,9,3,1,1,5,4,1.4705e+15,2
27,8,7,9,1,9,7,13,1.4705e+15,2
28,7,11,14,10,2,2,11,1.4705e+15,2
15,27,10,5,12,5,4,6,1.4705e+15,2
19,2,5,0,6,0,4,5,1.4705e+15,2
15,5,12,13,15,18,22,37,1.4705e+15,2
9,2,1,3,6,4,1,24,1.4705e+15,2
44,8,4,4,11,8,2,8,1.4705e+15,2
62,7,4,6,5,1,1,12,1.4705e+15,2
34,46,14,9,8,5,12,15,1.4705e+15,2
1,9,6,9,13,12,11,14,1.4705e+15,2
33,16,1,1,3,0,6,33,1.4705e+15,2
5,23,8,2,16,16,0,11,1.4705e+15,2
8,6,11,15,18,17,16,13,1.4705e+15,2
6,16,5,6,7,3,6,1,1.4705e+15,2
33,20,20,9,3,0,6,20,1.4705e+15,2
31,7,0,0,15,13,1,3,1.4705e+15,2
1,9,8,1,21,9,1,12,1.4705e+15,2
27,4,8,13,41,28,10,11,1.4705e+15,2
69,11,3,2,8,5,2,4,1.4705e+15,2
24,6,20,16,13,16,14,23,1.4705e+15,2
30,1,2,2,10,4,8,13,1.4705e+15,2
40,29,11,8,20,10,4,5,1.4705e+15,2
44,37,6,16,30,29,19,12,1.4705e+15,2
46,20,14,0,5,12,9,47,1.4705e+15,2
52,2,3,33,4,3,4,37,1.4705e+15,2
27,46,2,29,17,1,1,14,1.4705e+15,2
36,22,9,9,10,12,8,1,1.4705e+15,2
32,0,16,13,2,7,16,40,1.4705e+15,2
7,24,7,25,12,3,1,11,1.4705e+15,2
10,19,3,10,11,6,18,28,1.4705e+15,2
12,29,12,24,4,2,8,6,1.4705e+15,2
23,11,7,21,12,7,8,12,1.4705e+15,2
24,24,12,12,9,5,2,4,1.4705e+15,2
7,3,3,9,1,3,3,10,1.4705e+15,2
20,1,16,13,9,3,4,9,1.4705e+15,2
31,19,16,0,7,2,6,7,1.4705e+15,2
49,10,20,29,44,40,29,25,1.4705e+15,2
20,40,10,24,24,18,17,28,1.4705e+15,2
43,30,7,6,13,18,4,2,1.4705e+15,2
13,26,1,5,9,13,7,8,1.4705e+15,2
26,19,2,0,0,6,15,2,1.4705e+15,2
33,18,8,0,7,3,3,9,1.4705e+15,2
41,43,10,11,8,11,17,44,1.4705e+15,2
4,10,18,19,24,11,5,15,1.4705e+15,2
22,13,12,6,5,5,1,28,1.4705e+15,2
4,6,8,0,5,8,2,12,1.4705e+15,2
14,12,4,3,10,5,3,3,1.4705e+15,2
20,30,8,31,28,34,15,13,1.4705e+15,2
15,4,1,19,22,21,5,23,1.4705e+15,2
13,54,6,20,21,14,11,8,1.4705e+15,2
32,15,8,11,9,15,5,2,1.4705e+15,2
10,18,0,4,7,3,5,4,1.4705e+15,2
2,7,4,10,5,26,3,16,1.4705e+15,2
10,14,10,6,2,6,8,12,1.4705e+15,2
66,21,4,7,8,27,10,18,1.4705e+15,2
84,17,1,0,4,17,0,15,1.4705e+15,2
4,7,4,17,6,28,8,13,1.4705e+15,2
27,19,8,11,2,14,11,1,1.4705e+15,2
10,5,4,3,3,8,2,6,1.4705e+15,2
7,2,9,56,30,56,5,4,1.4705e+15,2
8,9,1,16,6,59,6,0,1.4705e+15,2
15,7,1,19,19,41,12,4,1.4705e+15,2
32,11,9,7,3,28,5,3,1.4705e+15,2
44,7,3,23,9,31,28,10,1.4705e+15,2
19,4,4,23,4,9,8,21,1.4705e+15,2
23,1,1,14,7,59,21,3,1.4705e+15,2
7,0,0,1,8,1,7,1,1.4705e+15,2
1,0,0,7,4,20,0,1,1.4705e+15,2
3,1,2,11,9,1,4,4,1.4705e+15,2
3,15,3,7,2,15,4,2,1.4705e+15,2
15,1,5,8,9,10,11,7,1.4705e+15,2
14,3,0,1,3,35,4,7,1.4705e+15,2
24,9,3,7,6,10,4,1,1.4705e+15,2
7,5,0,22,6,15,3,4,1.4705e+15,2
22,13,1,6,2,18,2,6,1.4705e+15,2
3,8,5,12,4,7,4,4,1.4705e+15,2
11,0,5,5,1,6,4,10,1.4705e+15,2
15,0,1,6,3,9,3,5,1.4705e+15,2
26,0,3,13,4,25,1,2,1.4705e+15,2
22,8,3,16,5,6,2,5,1.4705e+15,2
18,1,3,1,0,27,12,6,1.4705e+15,2
2,6,4,11,6,49,17,2,1.4705e+15,2
38,11,4,7,7,6,2,10,1.4705e+15,2
22,8,1,9,7,5,3,7,1.4705e+15,2
13,4,7,2,0,20,1,2,1.4705e+15,2
7,6,2,14,5,13,4,3,1.4705e+15,2
15,2,4,13,8,7,1,1,1.4705e+15,2
13,6,1,5,2,15,9,3,1.4705e+15,2
9,3,3,12,1,11,14,8,1.4705e+15,2
14,2,3,7,4,10,1,1,1.4705e+15,2
35,7,5,1,2,11,1,1,1.4705e+15,2
24,6,7,2,1,0,9,4,1.4705e+15,2
10,5,8,5,2,5,7,0,1.4705e+15,2
33,7,8,3,2,11,6,6,1.4705e+15,2
10,1,2,3,1,8,1,5,1.4705e+15,2
20,7,3,0,3,2,0,7,1.4705e+15,2
20,7,5,9,3,5,1,3,1.4705e+15,2
2,5,6,6,4,0,0,4,1.4705e+15,2
11,6,5,4,0,4,2,2,1.4705e+15,2
19,3,2,12,5,11,2,4,1.4705e+15,2
19,2,6,4,3,17,3,5,1.4705e+15,2
29,17,2,2,3,8,0,11,1.4705e+15,2
24,1,4,5,3,8,4,4,1.4705e+15,2
19,5,2,4,2,6,12,12,1.4705e+15,2
19,5,4,3,4,18,1,5,1.4705e+15,2
11,5,5,6,0,27,11,12,1.4705e+15,2
77,10,1,2,6,47,21,6,1.4705e+15,2
17,8,9,7,3,4,3,5,1.4705e+15,2
45,4,2,1,3,5,2,1,1.4705e+15,2
45,8,4,1,0,9,3,1,1.4705e+15,2
20,1,4,2,0,13,5,2,1.4705e+15,2
39,11,4,1,1,18,5,2,1.4705e+15,2
11,3,4,2,2,40,13,3,1.4705e+15,2
8,1,3,5,2,7,8,1,1.4705e+15,2
8,5,1,1,1,7,2,2,1.4705e+15,0
27,7,2,3,0,2,1,1,1.4705e+15,0
15,6,0,1,1,5,6,6,1.4705e+15,0
20,5,5,3,2,1,1,1,1.4705e+15,0
0,1,4,2,0,5,3,1,1.4705e+15,0
6,1,0,0,2,2,3,3,1.4705e+15,0
2,3,2,2,1,3,1,2,1.4705e+15,0
4,5,2,1,2,1,1,0,1.4705e+15,0
1,2,1,1,1,0,1,1,1.4705e+15,0
33,11,6,0,2,1,2,9,1.4705e+15,0
1,4,3,2,0,3,0,2,1.4705e+15,0
8,3,2,0,1,1,0,2,1.4705e+15,0
16,8,9,8,4,6,5,2,1.4705e+15,0
21,5,7,2,1,5,1,3,1.4705e+15,0
1,1,2,3,2,1,2,1,1.4705e+15,0
25,3,7,2,3,5,1,6,1.4705e+15,0
19,3,5,3,1,3,1,2,1.4705e+15,0
19,6,4,1,3,4,2,6,1.4705e+15,0
14,7,3,3,2,0,2,6,1.4705e+15,0
19,1,5,4,2,2,0,1,1.4705e+15,0
16,2,2,0,0,1,1,0,1.4705e+15,0
16,2,0,2,1,2,2,3,1.4705e+15,0
6,1,0,2,1,2,1,1,1.4705e+15,0
8,2,3,3,2,3,4,7,1.4705e+15,0
13,4,2,0,0,1,4,6,1.4705e+15,0
11,3,1,1,1,2,3,1,1.4705e+15,0
12,6,6,4,2,0,1,3,1.4705e+15,0
10,0,1,2,1,9,6,3,1.4705e+15,0
1,3,4,2,2,7,1,0,1.4705e+15,0
21,2,1,1,2,5,4,2,1.4705e+15,0
5,7,2,1,1,3,1,2,1.4705e+15,0
2,1,1,1,0,5,1,2,1.4705e+15,0
5,1,5,2,0,8,4,3,1.4705e+15,0
7,1,4,1,1,10,3,0,1.4705e+15,0
13,4,2,1,2,7,4,1,1.4705e+15,0
16,4,3,3,1,0,0,1,1.4705e+15,0
13,1,2,1,1,4,2,1,1.4705e+15,0
3,0,4,0,1,6,3,2,1.4705e+15,0
15,2,1,1,0,4,2,2,1.4705e+15,0
15,1,2,3,1,0,1,4,1.4705e+15,0
14,2,4,3,1,2,3,0,1.4705e+15,0
3,2,3,0,1,2,1,2,1.4705e+15,0
15,2,1,2,1,0,2,4,1.4705e+15,0
19,8,5,3,1,3,3,6,1.4705e+15,0
10,0,0,2,1,2,2,1,1.4705e+15,0
2,2,1,0,1,2,2,3,1.4705e+15,0
5,2,1,2,0,2,0,1,1.4705e+15,0
13,3,3,3,2,1,3,2,1.4705e+15,0
8,0,0,2,0,1,1,3,1.4705e+15,0
14,0,2,2,1,6,1,2,1.4705e+15,0
13,3,3,4,1,14,5,1,1.4705e+15,0
6,1,1,1,2,13,6,2,1.4705e+15,0
4,5,4,3,2,1,3,2,1.4705e+15,0
3,5,2,2,1,6,3,0,1.4705e+15,0
4,1,2,3,0,5,1,1,1.4705e+15,0
1,5,6,5,3,2,0,2,1.4705e+15,0
13,2,3,3,1,0,1,3,1.4705e+15,0
39,10,6,3,1,3,0,3,1.4705e+15,0
1,4,2,6,4,10,8,6,1.4705e+15,0
10,0,2,1,0,0,2,1,1.4705e+15,0
10,0,3,2,2,5,2,1,1.4705e+15,0
7,6,0,3,1,3,0,0,1.4705e+15,0
8,0,1,2,0,1,1,3,1.4705e+15,0
5,2,3,1,2,3,3,4,1.4705e+15,0
17,0,0,1,1,6,1,2,1.4705e+15,0
1,2,3,1,1,2,2,2,1.4705e+15,0
3,1,1,1,2,2,2,3,1.4705e+15,0
4,1,1,2,3,3,3,7,1.4705e+15,0
4,3,0,3,1,12,0,2,1.4705e+15,0
0,1,1,1,0,24,6,2,1.4705e+15,0
3,3,2,1,1,5,2,0,1.4705e+15,0
11,3,4,3,1,2,2,1,1.4705e+15,0
9,3,4,2,1,0,2,5,1.4705e+15,0
23,6,2,0,0,7,0,3,1.4705e+15,0
2,1,0,1,3,0,0,2,1.4705e+15,0
11,2,1,0,0,6,0,1,1.4705e+15,0
42,10,6,4,0,3,0,4,1.4705e+15,0
31,7,7,1,1,2,0,1,1.4705e+15,0
9,7,5,5,2,9,5,3,1.4705e+15,0
2,3,1,1,1,11,1,3,1.4705e+15,0
1,6,0,1,1,7,6,5,1.4705e+15,0
4,2,0,0,1,2,3,1,1.4705e+15,0
4,3,1,0,1,0,2,3,1.4705e+15,0
3,0,4,2,0,5,4,2,1.4705e+15,0
11,2,3,0,1,3,2,0,1.4705e+15,0
21,2,0,0,0,6,0,1,1.4705e+15,0
11,8,2,2,1,15,3,4,1.4705e+15,0
1,0,3,1,2,1,1,0,1.4705e+15,0
4,4,3,3,3,3,3,5,1.4705e+15,0
10,1,0,1,0,1,2,2,1.4705e+15,0
8,1,2,0,1,6,2,4,1.4705e+15,0
11,1,1,0,0,2,1,1,1.4705e+15,0
3,3,0,2,1,7,0,0,1.4705e+15,0
14,4,1,1,0,6,3,3,1.4705e+15,0
11,2,2,3,2,2,6,5,1.4705e+15,0
19,4,1,1,0,2,0,3,1.4705e+15,0
17,3,2,1,2,2,1,2,1.4705e+15,0
7,3,6,2,1,1,0,0,1.4705e+15,0
13,2,3,0,2,4,2,1,1.4705e+15,0
9,7,2,0,0,5,2,3,1.4705e+15,0
6,2,4,2,3,2,0,0,1.4705e+15,0
1,3,3,2,2,3,1,0,1.4705e+15,0
11,3,1,2,1,2,1,1,1.4705e+15,0
17,3,2,2,1,2,2,5,1.4705e+15,0
16,5,3,0,1,3,3,6,1.4705e+15,0
7,7,5,4,4,4,4,4,1.4705e+15,0
1,3,1,2,2,8,2,0,1.4705e+15,0
14,0,3,4,1,1,0,0,1.4705e+15,0
26,4,0,0,0,3,1,4,1.4705e+15,0
7,2,3,3,2,7,3,4,1.4705e+15,0
4,0,2,0,1,4,1,1,1.4705e+15,0
1,1,3,4,0,0,2,2,1.4705e+15,0
26,5,2,1,2,1,2,0,1.4705e+15,0
5,2,3,1,0,2,3,4,1.4705e+15,0
15,2,1,0,2,6,3,1,1.4705e+15,0
4,3,1,2,0,2,0,1,1.4705e+15,0
17,3,2,1,1,2,0,4,1.4705e+15,0
1,7,1,1,2,2,3,3,1.4705e+15,0
10,1,0,1,0,1,1,3,1.4705e+15,0
6,4,2,2,1,0,3,1,1.4705e+15,0
1,3,2,1,1,2,1,1,1.4705e+15,0
5,8,1,1,0,0,1,2,1.4705e+15,0
1,2,2,2,0,0,1,2,1.4705e+15,0
2,3,0,0,3,3,1,0,1.4705e+15,0
7,2,2,0,0,3,1,2,1.4705e+15,0
34,11,5,0,1,0,1,4,1.4705e+15,0
20,4,2,1,1,1,2,0,1.4705e+15,0
18,4,2,3,1,4,1,0,1.4705e+15,0
6,0,1,1,1,19,4,2,1.4705e+15,0
5,5,0,1,0,1,3,9,1.4705e+15,0
1,1,3,0,1,0,0,1,1.4705e+15,0
4,5,4,3,1,3,2,5,1.4705e+15,0
6,5,2,2,3,5,1,1,1.4705e+15,0
2,0,0,1,0,2,0,1,1.4705e+15,0
15,4,1,1,1,7,3,4,1.4705e+15,0
10,3,2,2,2,10,6,5,1.4705e+15,0
2,6,2,1,3,6,6,8,1.4705e+15,0
18,8,8,3,2,5,2,4,1.4705e+15,0
8,2,2,3,1,7,1,4,1.4705e+15,0
4,1,1,1,0,7,2,4,1.4705e+15,0
30,8,6,4,3,5,7,5,1.4705e+15,0
4,2,1,1,1,0,2,0,1.4705e+15,0
18,0,7,6,4,6,3,3,1.4705e+15,0
56,19,9,5,4,1,5,9,1.4705e+15,0
1,7,6,3,0,0,5,6,1.4705e+15,0
17,1,4,5,2,5,3,7,1.4705e+15,0
50,18,11,1,0,2,5,17,1.4705e+15,0
3,0,0,4,2,3,1,1,1.4705e+15,0
9,0,2,1,2,5,1,1,1.4705e+15,0
13,2,0,2,0,1,3,6,1.4705e+15,0
17,5,1,2,2,1,3,2,1.4705e+15,0
5,3,1,2,2,6,0,1,1.4705e+15,0
26,1,4,3,1,5,3,8,1.4705e+15,0
10,1,2,1,1,4,0,1,1.4705e+15,0
4,1,0,2,0,3,1,0,1.4705e+15,0
21,3,1,5,4,5,1,3,1.4705e+15,0
7,1,0,0,1,0,2,1,1.4705e+15,0
18,5,3,1,2,2,2,1,1.4705e+15,0
8,7,5,3,0,4,1,2,1.4705e+15,0
2,2,0,0,1,0,3,1,1.4705e+15,0
21,1,3,4,2,2,3,1,1.4705e+15,0
24,3,1,0,1,5,2,3,1.4705e+15,0
8,2,0,1,1,5,4,4,1.4705e+15,0
18,0,0,3,0,8,1,3,1.4705e+15,0
17,4,2,1,1,7,1,4,1.4705e+15,0
20,5,2,2,1,1,4,3,1.4705e+15,0
8,4,1,0,1,7,0,3,1.4705e+15,0
26,8,5,3,0,7,1,8,1.4705e+15,0
3,2,2,1,1,5,4,2,1.4705e+15,0
13,1,3,0,1,1,1,0,1.4705e+15,0
8,1,1,1,0,6,2,0,1.4705e+15,0
20,1,1,1,2,4,2,0,1.4705e+15,0
10,3,1,2,1,2,1,1,1.4705e+15,0
18,3,1,2,1,5,1,2,1.4705e+15,0
3,6,4,4,3,7,5,3,1.4705e+15,0
18,0,1,2,0,0,0,0,1.4705e+15,0
32,3,2,3,1,2,1,2,1.4705e+15,0
35,6,4,1,0,3,1,1,1.4705e+15,0
14,3,1,1,1,2,0,3,1.4705e+15,0
16,4,2,0,1,5,1,0,1.4705e+15,0
3,0,2,1,2,12,5,4,1.4705e+15,0
8,0,0,0,2,16,4,4,1.4705e+15,0
1,2,1,0,1,2,1,0,1.4705e+15,0
23,2,3,4,0,0,0,3,1.4705e+15,0
12,0,6,6,4,7,3,1,1.4705e+15,0
10,1,1,4,0,3,1,2,1.4705e+15,0
26,1,2,2,0,0,0,1,1.4705e+15,0
28,0,2,1,1,2,2,1,1.4705e+15,0
16,1,5,0,0,4,2,5,1.4705e+15,0
3,2,1,3,4,1,1,1,1.4705e+15,0
9,3,2,1,1,3,1,1,1.4705e+15,0
11,5,8,3,4,1,4,2,1.4705e+15,0
14,3,2,0,1,5,3,2,1.4705e+15,0
9,5,4,1,1,1,0,5,1.4705e+15,0
5,1,2,1,1,3,1,2,1.4705e+15,0
13,1,3,0,1,2,3,6,1.4705e+15,0
9,7,4,0,1,4,1,2,1.4705e+15,0
10,2,3,4,2,1,0,2,1.4705e+15,0
29,7,4,1,1,2,2,1,1.4705e+15,0
22,6,3,4,0,3,2,4,1.4705e+15,0
33,8,1,0,0,6,5,0,1.4705e+15,0
32,7,1,1,0,2,1,4,1.4705e+15,0
19,6,5,3,3,3,2,5,1.4705e+15,0
9,1,2,3,0,2,0,0,1.4705e+15,0
1,0,3,2,0,9,3,2,1.4705e+15,0
11,3,4,2,0,7,1,1,1.4705e+15,0
2,3,2,3,2,1,2,3,1.4705e+15,0
2,3,0,1,0,1,1,2,1.4705e+15,0
20,1,2,4,1,5,3,0,1.4705e+15,0
21,1,2,3,0,1,2,4,1.4705e+15,0
16,3,10,4,1,2,1,5,1.4705e+15,0
8,4,1,2,1,2,1,1,1.4705e+15,0
6,1,5,0,1,3,1,4,1.4705e+15,0
2,4,4,4,5,15,7,1,1.4705e+15,0
5,1,2,2,2,11,1,1,1.4705e+15,0
14,1,1,1,0,2,2,4,1.4705e+15,0
8,3,4,2,2,4,1,1,1.4705e+15,0
6,2,3,1,1,1,1,0,1.4705e+15,0
24,0,4,3,2,2,4,4,1.4705e+15,0
2,1,3,2,1,1,4,4,1.4705e+15,0
4,1,2,4,1,2,0,1,1.4705e+15,0
5,3,0,3,2,4,1,1,1.4705e+15,0
14,1,3,0,1,2,0,3,1.4705e+15,0
4,1,1,2,1,2,3,2,1.4705e+15,0
9,3,4,3,3,6,4,4,1.4705e+15,0
8,1,2,2,1,1,1,0,1.4705e+15,0
15,0,2,1,1,2,0,0,1.4705e+15,0
15,7,2,3,4,8,7,7,1.4705e+15,0
8,2,3,3,0,4,0,4,1.4705e+15,0
12,6,3,1,1,1,4,5,1.4705e+15,0
13,2,1,2,3,4,3,2,1.4705e+15,0
13,1,0,1,2,6,2,3,1.4705e+15,0
7,1,1,0,0,3,1,0,1.4705e+15,0
5,2,0,0,0,1,1,3,1.4705e+15,0
12,1,2,2,3,5,3,3,1.4705e+15,0
2,5,6,6,1,4,3,9,1.4705e+15,0
36,18,8,3,2,6,8,14,1.4705e+15,0
10,7,3,2,2,2,2,4,1.4705e+15,0
1,5,1,1,1,4,0,0,1.4705e+15,0
13,2,3,3,2,3,3,6,1.4705e+15,0
6,5,3,1,1,0,1,3,1.4705e+15,0
5,2,0,1,0,0,3,1,1.4705e+15,0
4,3,3,4,2,3,1,1,1.4705e+15,0
5,5,2,0,1,1,1,0,1.4705e+15,0
19,0,2,1,2,6,3,2,1.4705e+15,0
15,7,2,1,2,15,4,10,1.4705e+15,0
28,9,1,3,5,5,7,3,1.4705e+15,0
29,12,3,3,1,2,1,5,1.4705e+15,0
17,6,0,4,3,3,1,3,1.4705e+15,0
5,3,4,3,2,7,4,5,1.4705e+15,0
2,4,1,2,3,2,3,4,1.4705e+15,0
6,1,3,3,3,7,6,4,1.4705e+15,0
65,10,7,3,3,2,3,10,1.4705e+15,0
20,5,4,3,0,3,0,3,1.4705e+15,0
8,4,3,4,2,5,6,3,1.4705e+15,0
2,1,0,0,1,3,2,3,1.4705e+15,0
22,4,2,0,1,0,0,2,1.4705e+15,0
4,5,4,4,4,3,6,0,1.4705e+15,0
8,1,2,2,0,2,3,6,1.4705e+15,0
19,3,3,0,0,4,3,5,1.4705e+15,0
11,2,4,2,1,4,1,1,1.4705e+15,0
8,2,4,4,2,5,2,4,1.4705e+15,0
11,4,1,0,2,8,4,1,1.4705e+15,0
13,8,4,2,1,0,1,1,1.4705e+15,0
12,2,1,0,0,1,0,3,1.4705e+15,0
12,3,3,0,0,3,3,7,1.4705e+15,0
9,5,3,3,1,11,4,2,1.4705e+15,0
4,2,2,1,4,14,6,5,1.4705e+15,0
22,4,2,2,2,4,3,4,1.4705e+15,0
14,1,2,1,0,2,0,0,1.4705e+15,0
5,1,3,0,0,3,1,1,1.4705e+15,0
6,1,4,1,0,2,2,0,1.4705e+15,0
18,2,0,0,1,0,1,2,1.4705e+15,0
3,1,2,0,1,4,1,1,1.4705e+15,0
2,4,2,2,1,5,1,1,1.4705e+15,0
6,1,4,1,2,1,1,1,1.4705e+15,0
14,3,1,2,1,1,0,1,1.4705e+15,0
42,5,1,1,1,2,3,5,1.4705e+15,0
40,7,1,2,1,0,5,4,1.4705e+15,0
26,1,1,3,2,1,2,1,1.4705e+15,0
22,9,5,5,1,2,2,4,1.4705e+15,0
4,4,3,1,0,5,2,3,1.4705e+15,0
25,2,1,0,1,4,1,6,1.4705e+15,0
7,1,2,1,0,0,2,1,1.4705e+15,0
12,2,4,3,0,4,4,0,1.4705e+15,0
22,2,1,1,0,0,0,1,1.4705e+15,0
16,10,10,5,3,2,3,1,1.4705e+15,0
25,2,1,0,1,3,2,0,1.4705e+15,0
22,5,1,0,2,3,2,0,1.4705e+15,0
23,7,4,1,1,14,3,2,1.4705e+15,0
5,3,0,2,0,13,4,3,1.4705e+15,0
12,3,1,2,1,0,1,1,1.4705e+15,0
1,3,2,1,1,5,4,2,1.4705e+15,0
6,0,1,0,0,5,2,1,1.4705e+15,0
3,2,1,0,2,9,5,1,1.4705e+15,0
7,2,1,0,2,1,2,5,1.4705e+15,0
5,4,1,1,0,1,1,1,1.4705e+15,0
42,7,2,2,2,2,2,1,1.4705e+15,0
6,1,2,0,3,14,10,8,1.4705e+15,0
18,2,0,0,2,1,1,4,1.4705e+15,0
10,2,2,2,1,1,2,4,1.4705e+15,0
2,2,4,1,0,3,0,1,1.4705e+15,0
17,1,1,0,0,2,0,7,1.4705e+15,0
6,8,8,3,2,2,1,2,1.4705e+15,0
29,8,2,1,2,5,1,4,1.4705e+15,0
12,4,4,2,1,13,4,2,1.4705e+15,0
27,3,5,2,2,4,2,5,1.4705e+15,0
12,4,3,2,1,6,2,3,1.4705e+15,0
2,2,1,1,0,5,1,3,1.4705e+15,0
5,2,1,0,1,5,3,1,1.4705e+15,0
16,3,0,1,1,3,0,0,1.4705e+15,0
1,1,4,2,2,1,0,4,1.4705e+15,0
53,12,8,4,6,4,5,10,1.4705e+15,0
0,0,0,2,3,0,1,2,1.4705e+15,0
3,3,3,3,2,3,2,2,1.4705e+15,0
17,2,1,2,2,2,1,0,1.4705e+15,0
2,0,1,2,0,2,1,2,1.4705e+15,0
2,5,3,0,0,1,1,2,1.4705e+15,0
3,2,1,1,1,1,1,3,1.4705e+15,0
8,1,3,2,2,1,1,1,1.4705e+15,0
25,9,3,2,1,5,2,5,1.4705e+15,0
38,14,10,5,2,4,6,6,1.4705e+15,0
12,0,2,1,1,1,0,2,1.4705e+15,0
11,3,1,1,2,9,3,0,1.4705e+15,0
19,3,1,2,1,2,0,1,1.4705e+15,0
15,6,4,0,1,11,5,0,1.4705e+15,0
3,2,3,0,2,0,1,0,1.4705e+15,0
12,4,4,5,0,6,4,4,1.4705e+15,0
0,2,0,1,1,3,4,1,1.4705e+15,0
13,2,1,1,2,1,1,2,1.4705e+15,0
11,3,5,2,2,1,1,2,1.4705e+15,0
11,3,1,2,1,6,1,2,1.4705e+15,0
29,2,2,2,1,19,4,5,1.4705e+15,0
43,8,1,1,1,0,0,8,1.4705e+15,0
4,1,1,2,1,1,1,6,1.4705e+15,0
10,1,2,4,1,1,0,1,1.4705e+15,0
5,3,0,2,2,7,0,1,1.4705e+15,0
17,3,1,2,1,1,0,2,1.4705e+15,0
0,2,1,2,0,4,5,1,1.4705e+15,0
3,1,2,1,1,4,2,3,1.4705e+15,0
3,0,4,1,3,2,3,3,1.4705e+15,0
25,7,2,1,0,6,1,6,1.4705e+15,0
2,4,2,2,1,6,1,2,1.4705e+15,0
2,1,0,1,1,2,2,1,1.4705e+15,0
4,3,1,3,0,2,0,3,1.4705e+15,0
7,1,1,1,2,2,2,1,1.4705e+15,0
1,0,2,1,1,2,1,5,1.4705e+15,0
8,4,3,3,0,1,3,3,1.4705e+15,0
8,1,2,1,0,2,2,3,1.4705e+15,0
3,3,0,1,1,2,2,4,1.4705e+15,0
4,2,2,4,1,1,0,1,1.4705e+15,0
7,3,3,5,1,2,0,2,1.4705e+15,0
20,4,6,2,1,3,0,2,1.4705e+15,0
79,14,7,3,2,13,3,11,1.4705e+15,0
19,2,3,0,0,24,9,3,1.4705e+15,0
11,2,3,2,3,2,2,3,1.4705e+15,0
1,1,3,2,2,0,1,1,1.4705e+15,0
11,0,2,3,1,0,2,2,1.4705e+15,0
8,1,1,2,0,6,2,1,1.4705e+15,0
4,6,2,3,2,1,5,0,1.4705e+15,0
10,7,7,1,1,1,2,5,1.4705e+15,0
19,4,2,0,1,6,3,1,1.4705e+15,0
27,4,5,4,2,3,1,3,1.4705e+15,0
3,1,1,2,1,3,0,2,1.4705e+15,0
12,4,1,6,2,5,0,4,1.4705e+15,0
14,1,1,1,1,8,1,3,1.4705e+15,0
37,8,3,2,1,13,2,8,1.4705e+15,0
1,4,6,4,1,0,1,0,1.4705e+15,0
7,1,2,1,2,1,1,5,1.4705e+15,0
1,0,1,2,1,0,2,3,1.4705e+15,0
3,3,1,1,0,2,0,3,1.4705e+15,0
18,3,3,4,1,5,0,1,1.4705e+15,0
40,8,3,3,1,12,3,3,1.4705e+15,0
16,3,3,1,0,22,3,2,1.4705e+15,0
8,4,2,3,2,3,1,1,1.4705e+15,0
7,1,2,1,2,8,2,1,1.4705e+15,0
20,5,0,2,1,7,0,2,1.4705e+15,0
10,1,3,2,0,8,1,6,1.4705e+15,0
12,0,1,1,1,1,2,1,1.4705e+15,0
3,6,9,7,2,5,1,1,1.4705e+15,0
2,3,4,1,1,1,1,2,1.4705e+15,0
9,0,1,3,2,4,1,1,1.4705e+15,0
3,1,3,1,1,3,2,1,1.4705e+15,0
12,3,2,3,1,1,1,3,1.4705e+15,0
22,6,1,1,1,1,1,4,1.4705e+15,0
22,8,3,3,1,0,2,5,1.4705e+15,0
1,1,1,1,1,2,0,3,1.4705e+15,0
5,2,0,1,3,8,0,1,1.4705e+15,0
25,6,1,1,1,3,4,2,1.4705e+15,0
28,5,3,2,1,1,5,11,1.4705e+15,0
18,3,3,2,1,6,3,5,1.4705e+15,0
11,3,6,2,2,2,4,7,1.4705e+15,0
2,2,1,3,1,4,1,0,1.4705e+15,0
17,1,1,1,0,15,3,1,1.4705e+15,0
12,5,3,5,2,21,4,2,1.4705e+15,0
10,5,1,1,1,1,0,2,1.4705e+15,0
3,3,5,4,5,3,2,3,1.4705e+15,0
25,5,4,0,1,1,2,4,1.4705e+15,0
6,1,2,2,1,4,4,2,1.4705e+15,0
5,1,4,3,0,1,0,1,1.4705e+15,0
7,1,1,2,1,3,1,0,1.4705e+15,0
11,0,1,1,1,4,0,0,1.4705e+15,1
15,3,4,1,1,3,3,5,1.4705e+15,1
3,1,2,2,0,3,0,3,1.4705e+15,1
2,1,1,1,0,3,3,4,1.4705e+15,1
20,6,1,1,3,5,2,4,1.4705e+15,1
27,5,4,2,2,9,1,4,1.4705e+15,1
13,2,2,2,3,23,9,1,1.4705e+15,1
56,12,9,3,2,3,6,4,1.4705e+15,1
5,1,2,0,2,1,1,2,1.4705e+15,1
6,4,1,0,1,2,2,2,1.4705e+15,1
10,3,5,1,0,3,2,6,1.4705e+15,1
32,6,5,4,1,1,3,3,1.4705e+15,1
17,4,1,1,1,2,2,1,1.4705e+15,1
4,3,1,0,1,4,4,0,1.4705e+15,1
21,5,4,3,0,2,2,1,1.4705e+15,1
33,11,6,2,4,5,3,6,1.4705e+15,1
3,3,3,1,2,3,2,3,1.4705e+15,1
4,1,1,3,0,2,1,1,1.4705e+15,1
7,4,3,1,1,0,2,0,1.4705e+15,1
12,3,3,1,1,4,3,5,1.4705e+15,1
15,1,0,1,1,4,3,2,1.4705e+15,1
14,3,6,5,2,2,4,6,1.4705e+15,1
0,1,1,1,1,1,3,1,1.4705e+15,1
9,1,0,4,0,3,1,1,1.4705e+15,1
11,1,2,2,0,2,1,4,1.4705e+15,1
16,2,2,2,1,10,3,2,1.4705e+15,1
29,4,3,1,1,23,4,1,1.4705e+15,1
36,7,2,1,0,5,4,4,1.4705e+15,1
1,1,2,1,0,1,1,0,1.4705e+15,1
0,4,4,3,2,1,1,2,1.4705e+15,1
26,6,4,3,3,2,4,8,1.4705e+15,1
16,2,2,3,1,1,1,2,1.4705e+15,1
1,1,0,2,3,5,2,4,1.4705e+15,1
3,1,0,3,1,1,3,3,1.4705e+15,1
23,3,0,0,0,5,1,0,1.4705e+15,1
14,4,7,3,1,6,3,3,1.4705e+15,1
8,1,1,0,0,4,2,1,1.4705e+15,1
9,2,1,0,0,5,2,0,1.4705e+15,1
6,2,5,1,1,3,2,0,1.4705e+15,1
7,1,4,1,3,8,4,2,1.4705e+15,1
13,2,2,2,0,2,1,2,1.4705e+15,1
14,2,2,1,3,7,2,1,1.4705e+15,1
5,4,1,2,0,7,2,4,1.4705e+15,1
4,1,7,2,2,2,3,1,1.4705e+15,1
6,2,5,2,1,3,1,2,1.4705e+15,1
0,1,4,1,1,1,2,1,1.4705e+15,1
1,3,4,2,0,1,2,0,1.4705e+15,1
3,4,0,1,1,3,1,3,1.4705e+15,1
8,4,2,3,1,4,0,0,1.4705e+15,1
6,0,4,3,1,0,2,2,1.4705e+15,1
7,2,3,2,1,1,1,2,1.4705e+15,1
0,1,3,1,1,1,0,0,1.4705e+15,1
17,1,0,0,1,2,2,4,1.4705e+15,1
2,1,0,1,1,4,3,3,1.4705e+15,1
12,1,5,1,1,0,0,2,1.4705e+15,1
5,1,1,1,0,2,1,1,1.4705e+15,1
10,1,3,3,2,2,1,3,1.4705e+15,1
3,1,2,4,2,5,0,1,1.4705e+15,1
5,3,2,1,2,6,4,1,1.4705e+15,1
25,0,2,1,1,2,2,1,1.4705e+15,1
4,2,1,2,1,5,0,1,1.4705e+15,1
2,0,2,2,0,1,1,2,1.4705e+15,1
9,1,1,1,2,3,2,2,1.4705e+15,1
20,5,5,2,1,4,2,2,1.4705e+15,1
3,1,2,1,0,2,2,1,1.4705e+15,1
3,3,3,2,3,3,2,1,1.4705e+15,1
30,12,3,3,3,1,3,13,1.4705e+15,1
9,6,4,1,1,1,2,1,1.4705e+15,1
2,0,3,3,1,0,0,2,1.4705e+15,1
1,1,0,2,2,1,0,1,1.4705e+15,1
9,1,1,2,0,1,1,3,1.4705e+15,1
5,3,1,1,0,2,1,2,1.4705e+15,1
20,3,2,2,0,4,4,10,1.4705e+15,1
13,5,3,2,0,1,1,1,1.4705e+15,1
29,3,0,5,1,2,1,3,1.4705e+15,1
15,4,4,3,1,1,3,7,1.4705e+15,1
2,4,2,1,2,0,1,3,1.4705e+15,1
20,0,5,1,1,1,1,0,1.4705e+15,1
3,2,7,4,3,7,2,1,1.4705e+15,1
10,0,3,2,3,8,4,1,1.4705e+15,1
10,4,8,2,1,0,0,1,1.4705e+15,1
9,7,4,2,1,3,1,4,1.4705e+15,1
15,5,3,1,1,3,2,5,1.4705e+15,1
7,1,2,2,1,2,0,2,1.4705e+15,1
31,12,4,3,1,3,6,7,1.4705e+15,1
3,5,2,1,1,0,2,3,1.4705e+15,1
9,0,4,2,2,1,1,1,1.4705e+15,1
3,1,4,3,0,0,0,3,1.4705e+15,1
9,5,2,2,2,5,0,2,1.4705e+15,1
13,4,3,3,1,0,0,3,1.4705e+15,1
10,1,2,1,1,1,1,2,1.4705e+15,1
15,0,2,0,2,1,0,2,1.4705e+15,1
8,2,3,1,0,3,0,3,1.4705e+15,1
4,4,3,3,1,4,2,6,1.4705e+15,1
9,2,2,2,2,2,1,2,1.4705e+15,1
8,3,1,2,2,2,1,3,1.4705e+15,1
3,1,0,2,0,2,0,1,1.4705e+15,1
38,7,5,2,1,5,3,5,1.4705e+15,1
5,1,2,0,1,4,2,4,1.4705e+15,1
18,3,1,1,0,1,1,0,1.4705e+15,1
17,5,2,0,1,2,2,2,1.4705e+15,1
6,1,2,1,1,1,0,1,1.4705e+15,1
13,1,1,1,0,0,0,3,1.4705e+15,1
17,2,4,1,1,1,0,1,1.4705e+15,1
31,14,8,4,0,8,1,5,1.4705e+15,1
26,3,1,4,2,7,4,1,1.4705e+15,1
7,1,0,1,2,0,0,3,1.4705e+15,1
21,2,3,2,1,1,1,7,1.4705e+15,1
15,2,1,1,1,6,3,0,1.4705e+15,1
3,1,3,1,1,1,1,4,1.4705e+15,1
2,2,2,0,2,2,1,6,1.4705e+15,1
0,1,3,2,0,4,1,0,1.4705e+15,1
1,1,1,0,2,2,1,0,1.4705e+15,1
4,0,3,2,2,5,1,1,1.4705e+15,1
24,2,3,1,1,2,1,0,1.4705e+15,1
13,4,3,1,2,3,4,1,1.4705e+15,1
8,3,3,3,0,5,3,1,1.4705e+15,1
1,0,5,0,1,3,0,0,1.4705e+15,1
5,2,1,2,1,0,2,1,1.4705e+15,1
9,1,5,6,2,1,3,3,1.4705e+15,1
4,3,2,1,2,6,4,2,1.4705e+15,1
0,2,1,1,0,6,0,1,1.4705e+15,1
7,1,1,1,1,4,3,2,1.4705e+15,1
5,4,1,1,1,0,0,2,1.4705e+15,1
11,3,2,2,0,1,2,2,1.4705e+15,1
4,1,3,1,2,3,1,1,1.4705e+15,1
20,1,4,2,0,1,5,8,1.4705e+15,1
21,2,6,1,0,1,1,2,1.4705e+15,1
12,2,2,1,2,0,2,3,1.4705e+15,1
6,3,1,1,0,3,2,2,1.4705e+15,1
13,5,1,3,3,2,2,3,1.4705e+15,1
0,0,1,1,2,2,2,1,1.4705e+15,1
11,6,1,0,1,1,2,2,1.4705e+15,1
2,5,0,0,0,1,0,1,1.4705e+15,1
2,1,2,3,3,5,3,2,1.4705e+15,1
12,3,1,2,1,0,1,1,1.4705e+15,1
16,1,5,3,1,0,1,1,1.4705e+15,1
5,5,0,4,1,5,2,1,1.4705e+15,1
4,1,1,1,2,8,2,0,1.4705e+15,1
8,4,1,1,2,3,1,4,1.4705e+15,1
3,2,4,3,0,0,1,1,1.4705e+15,1
3,3,1,0,0,1,0,3,1.4705e+15,1
8,3,1,2,0,3,0,0,1.4705e+15,1
11,0,3,2,2,3,3,1,1.4705e+15,1
7,4,2,1,1,2,2,2,1.4705e+15,1
6,2,3,0,1,0,3,1,1.4705e+15,1
15,4,1,1,1,0,1,4,1.4705e+15,1
6,3,1,2,0,0,0,2,1.4705e+15,1
2,2,1,0,1,1,5,2,1.4705e+15,1
1,1,1,0,2,1,1,2,1.4705e+15,1
11,3,2,3,1,1,1,0,1.4705e+15,1
8,2,3,2,1,0,0,5,1.4705e+15,1
3,4,2,3,2,10,0,10,1.4705e+15,1
4,0,2,1,3,24,8,0,1.4705e+15,1
2,1,1,0,0,2,1,1,1.4705e+15,1
9,6,3,2,1,1,3,8,1.4705e+15,1
3,2,4,2,1,1,0,6,1.4705e+15,1
8,7,2,3,2,5,0,2,1.4705e+15,1
7,1,4,5,1,0,3,2,1.4705e+15,1
12,6,2,0,1,2,0,3,1.4705e+15,1
1,3,1,4,3,5,2,4,1.4705e+15,1
20,5,4,2,0,4,1,5,1.4705e+15,1
9,2,1,1,0,3,1,0,1.4705e+15,1
5,4,1,2,2,3,2,5,1.4705e+15,1
0,0,2,1,0,4,2,6,1.4705e+15,1
12,0,1,1,1,3,6,2,1.4705e+15,1
10,6,6,3,2,1,4,1,1.4705e+15,1
14,5,2,2,1,2,5,4,1.4705e+15,1
23,13,6,2,2,11,20,8,1.4705e+15,1
10,7,3,1,0,0,2,5,1.4705e+15,1
14,1,5,4,1,3,1,8,1.4705e+15,1
3,2,4,4,1,3,9,5,1.4705e+15,1
5,3,8,4,1,2,5,5,1.4705e+15,1
19,5,0,1,1,10,8,2,1.4705e+15,1
9,11,2,0,2,12,3,3,1.4705e+15,1
10,5,6,1,1,3,3,1,1.4705e+15,1
15,2,1,0,2,13,22,3,1.4705e+15,1
5,6,4,0,1,2,11,6,1.4705e+15,1
5,0,4,8,9,19,44,17,1.4705e+15,1
4,3,5,38,107,24,15,8,1.4705e+15,1
24,4,8,52,98,27,7,7,1.4705e+15,1
16,7,3,3,18,11,12,2,1.4705e+15,1
27,9,2,3,11,10,11,8,1.4705e+15,1
23,5,5,1,12,6,29,4,1.4705e+15,1
2,1,1,32,70,28,33,2,1.4705e+15,1
16,17,9,12,37,1,28,9,1.4705e+15,1
10,18,9,1,1,22,55,14,1.4705e+15,1
29,11,10,13,17,13,85,30,1.4705e+15,1
35,24,13,16,22,39,81,31,1.4705e+15,1
9,6,4,1,16,11,59,8,1.4705e+15,1
35,19,9,6,17,24,46,0,1.4705e+15,1
5,0,4,7,22,16,18,2,1.4705e+15,1
19,11,6,2,2,20,11,18,1.4705e+15,1
4,6,6,19,44,46,107,15,1.4705e+15,1
1,4,1,2,5,15,42,7,1.4705e+15,1
11,0,1,7,47,3,21,8,1.4705e+15,1
3,0,0,4,2,21,36,5,1.4705e+15,1
17,6,1,2,13,12,43,4,1.4705e+15,1
34,11,5,4,12,12,11,4,1.4705e+15,1
21,5,9,0,4,0,5,14,1.4705e+15,1
1,5,3,7,9,9,1,11,1.4705e+15,1
3,7,9,14,35,8,46,10,1.4705e+15,1
5,7,6,22,59,18,103,37,1.4705e+15,1
10,15,9,18,53,49,92,87,1.4705e+15,1
10,2,1,0,3,22,127,28,1.4705e+15,1
41,5,3,7,7,4,11,1,1.4705e+15,1
13,3,6,4,27,19,5,19,1.4705e+15,1
5,4,1,10,40,2,14,27,1.4705e+15,1
24,7,3,11,17,14,44,8,1.4705e+15,1
11,1,1,5,25,4,12,2,1.4705e+15,1
4,1,7,2,12,8,66,8,1.4705e+15,1
33,8,4,6,12,25,17,21,1.4705e+15,1
4,0,4,5,18,2,7,9,1.4705e+15,1
14,1,1,7,23,8,41,35,1.4705e+15,1
30,11,11,9,5,18,40,9,1.4705e+15,1
25,9,3,9,24,13,54,13,1.4705e+15,1
16,8,3,2,8,11,17,4,1.4705e+15,1
58,13,3,4,1,40,57,20,1.4705e+15,1
2,8,3,1,7,19,25,12,1.4705e+15,1
37,9,3,14,18,33,4,0,1.4705e+15,1
17,9,3,5,8,8,53,2,1.4705e+15,1
9,1,2,4,12,13,28,14,1.4705e+15,1
28,10,2,0,1,34,95,1,1.4705e+15,1
3,21,3,1,4,49,62,63,1.4705e+15,1
1,10,4,32,81,54,18,64,1.4705e+15,1
6,9,0,37,76,28,55,19,1.4705e+15,1
34,12,7,10,22,9,18,12,1.4705e+15,1
13,11,1,5,6,50,85,43,1.4705e+15,1
2,3,7,16,37,38,63,34,1.4705e+15,1
40,5,4,20,86,79,103,57,1.4705e+15,1
43,2,3,15,62,21,21,11,1.4705e+15,1
15,2,12,7,14,29,44,21,1.4705e+15,1
12,5,2,6,1,4,8,13,1.4705e+15,1
20,3,2,5,16,13,53,13,1.4705e+15,1
0,0,2,0,19,3,4,34,1.4705e+15,1
26,22,21,15,62,1,29,5,1.4705e+15,1
59,29,11,3,25,5,59,6,1.4705e+15,1
53,31,5,3,26,4,12,7,1.4705e+15,1
32,11,13,19,46,31,12,23,1.4705e+15,1
5,3,1,4,59,3,48,12,1.4705e+15,1
42,22,1,2,4,15,35,42,1.4705e+15,1
7,30,8,4,16,16,4,36,1.4705e+15,1
50,37,20,1,5,37,47,17,1.4705e+15,1
65,44,37,19,6,0,28,34,1.4705e+15,1
76,20,19,14,17,9,8,34,1.4705e+15,1
33,20,24,14,13,7,19,7,1.4705e+15,1
32,5,10,6,25,72,94,36,1.4705e+15,1
25,14,9,6,23,57,41,23,1.4705e+15,1
43,7,10,9,42,48,52,30,1.4705e+15,1
20,1,2,9,12,95,3,45,1.4705e+15,1
30,22,8,2,61,102,72,43,1.4705e+15,1
26,25,0,3,6,45,19,17,1.4705e+15,1
31,13,2,5,3,7,36,8,1.4705e+15,1
93,38,17,11,67,32,49,6,1.4705e+15,1
108,37,22,1,14,32,4,12,1.4705e+15,1
29,26,7,5,32,25,16,26,1.4705e+15,1
59,34,1,3,9,19,35,10,1.4705e+15,1
71,17,2,15,49,9,7,5,1.4705e+15,1
27,11,8,17,2,25,8,33,1.4705e+15,1
72,42,16,12,27,14,50,3,1.4705e+15,1
15,8,6,2,19,7,50,12,1.4705e+15,1
67,8,14,22,48,1,6,26,1.4705e+15,1
7,10,9,29,57,8,4,18,1.4705e+15,1
16,20,5,16,17,5,12,26,1.4705e+15,1
19,33,14,9,17,45,27,16,1.4705e+15,1
34,3,6,5,53,99,9,40,1.4705e+15,1
14,10,5,4,40,52,127,82,1.4705e+15,1
48,12,9,7,17,41,83,37,1.4705e+15,1
20,10,0,6,13,5,15,9,1.4705e+15,1
12,9,5,12,1,9,22,27,1.4705e+15,1
31,10,3,10,1,3,18,1,1.4705e+15,1
23,17,3,5,7,31,80,15,1.4705e+15,1
19,20,18,36,53,3,7,7,1.4705e+15,1
69,0,7,29,106,4,49,15,1.4705e+15,1
33,15,2,8,31,15,17,1,1.4705e+15,1
27,41,1,1,9,19,30,1,1.4705e+15,1
5,5,4,9,45,42,8,18,1.4705e+15,1
49,37,17,11,43,31,25,6,1.4705e+15,1
16,53,25,1,9,11,1,27,1.4705e+15,1
13,43,26,8,37,9,26,30,1.4705e+15,1
39,7,5,0,25,3,30,32,1.4705e+15,1
51,23,9,7,10,52,103,64,1.4705e+15,1
20,4,8,3,6,31,9,24,1.4705e+15,1
9,9,1,3,31,2,31,41,1.4705e+15,1
37,2,1,3,7,41,6,11,1.4705e+15,1
9,13,9,10,50,11,73,31,1.4705e+15,1
9,14,8,2,21,42,19,11,1.4705e+15,1
2,19,5,6,43,61,67,40,1.4705e+15,1
12,39,15,0,3,31,34,5,1.4705e+15,1
29,28,18,17,57,6,24,22,1.4705e+15,1
54,13,6,10,62,27,67,33,1.4705e+15,1
45,7,9,1,45,2,10,38,1.4705e+15,1
73,16,22,9,92,1,1,28,1.4705e+15,1
9,7,28,1,62,45,15,41,1.4705e+15,1
45,8,6,17,41,24,43,31,1.4705e+15,1
20,15,1,18,24,23,43,14,1.4705e+15,1
38,31,3,15,28,40,53,2,1.4705e+15,1
86,73,30,31,80,42,64,18,1.4705e+15,1
37,19,10,2,22,27,47,64,1.4705e+15,1
83,38,13,18,21,2,100,16,1.4705e+15,1
71,2,7,10,39,12,71,41,1.4705e+15,1
5,28,7,0,19,11,15,81,1.4705e+15,1
38,0,2,2,15,57,5,33,1.4705e+15,1
67,19,7,12,98,0,121,26,1.4705e+15,1
48,31,11,24,68,3,71,82,1.4705e+15,1
6,13,5,26,36,8,60,3,1.4705e+15,1
8,0,10,9,7,47,90,8,1.4705e+15,1
9,8,9,18,57,4,69,8,1.4705e+15,1
4,13,2,4,38,78,109,105,1.4705e+15,1
8,65,33,14,35,13,55,54,1.4705e+15,1
52,15,38,16,16,25,39,70,1.4705e+15,1
50,3,3,1,28,5,107,32,1.4705e+15,1
9,19,7,17,90,16,2,40,1.4705e+15,1
33,41,23,9,14,67,58,11,1.4705e+15,1
25,14,27,14,65,27,16,117,1.4705e+15,1
11,10,9,17,76,10,9,16,1.4705e+15,1
72,45,21,27,64,30,67,13,1.4705e+15,1
33,25,11,9,6,44,68,81,1.4705e+15,1
19,21,38,12,49,67,66,100,1.4705e+15,1
59,34,12,17,1,85,102,57,1.4705e+15,1
79,2,16,12,36,22,104,94,1.4705e+15,1
25,42,14,8,24,0,85,21,1.4705e+15,1
21,3,11,3,0,31,127,4,1.4705e+15,1
55,11,19,2,54,67,128,83,1.4705e+15,1
2,7,15,11,11,32,68,51,1.4705e+15,1
29,80,14,21,46,58,66,60,1.4705e+15,1
19,1,15,6,47,30,5,9,1.4705e+15,1
8,26,9,3,4,18,81,3,1.4705e+15,1
19,8,15,7,35,6,51,27,1.4705e+15,1
44,10,7,17,39,6,12,45,1.4705e+15,1
34,21,22,1,26,10,6,36,1.4705e+15,1
57,41,24,27,14,81,37,40,1.4705e+15,1
38,47,43,47,21,46,20,93,1.4705e+15,1
5,20,15,2,56,86,19,20,1.4705e+15,1
51,52,14,2,28,70,85,59,1.4705e+15,1
25,33,5,11,10,58,27,17,1.4705e+15,1
27,22,6,8,14,28,41,100,1.4705e+15,1
23,49,24,19,24,6,18,14,1.4705e+15,1
15,63,3,17,38,18,15,58,1.4705e+15,1
11,30,21,11,25,5,67,25,1.4705e+15,1
13,80,32,12,47,65,99,66,1.4705e+15,1
41,97,78,42,49,27,41,120,1.4705e+15,1
25,27,2,8,96,99,74,74,1.4705e+15,1
22,18,12,38,102,89,11,116,1.4705e+15,1
35,9,31,87,117,122,65,104,1.4705e+15,1
54,29,4,1,11,10,39,61,1.4705e+15,1
21,43,4,10,59,64,122,87,1.4705e+15,1
36,34,15,0,64,7,31,78,1.4705e+15,1
36,12,21,80,57,103,101,20,1.4705e+15,1
98,12,26,53,76,116,111,75,1.4705e+15,1
67,84,68,42,28,6,24,48,1.4705e+15,1
7,30,65,29,47,113,46,126,1.4705e+15,1
66,10,34,29,35,21,4,116,1.4705e+15,1
12,39,27,7,35,76,29,74,1.4705e+15,1
35,53,12,12,64,14,40,74,1.4705e+15,1
77,22,0,26,70,13,104,127,1.4705e+15,1
57,18,9,26,16,54,55,19,1.4705e+15,1
23,8,7,8,30,75,32,95,1.4705e+15,1
73,19,11,33,127,20,41,121,1.4705e+15,1
1,43,14,1,13,10,65,64,1.4705e+15,1
19,18,6,1,7,46,32,19,1.4705e+15,1
13,46,4,88,101,74,66,107,1.4705e+15,1
65,74,43,4,75,57,24,38,1.4705e+15,1
4,9,31,70,80,100,128,104,1.4705e+15,1
37,17,18,18,54,126,127,26,1.4705e+15,1
11,10,15,36,18,54,80,81,1.4705e+15,1
68,49,54,40,76,52,35,125,1.4705e+15,1
31,31,3,35,11,5,78,54,1.4705e+15,1
17,10,4,4,5,111,73,81,1.4705e+15,1
29,4,2,41,44,127,54,128,1.4705e+15,1
29,51,14,44,18,87,18,127,1.4705e+15,1
28,15,5,84,111,7,30,72,1.4705e+15,1
17,71,44,7,46,84,89,61,1.4705e+15,1
43,4,16,52,35,18,15,50,1.4705e+15,1
20,25,29,5,16,98,127,127,1.4705e+15,1
97,71,7,48,97,57,53,15,1.4705e+15,1
22,29,9,58,55,119,128,95,1.4705e+15,1
17,49,7,29,13,38,83,27,1.4705e+15,1
20,6,8,26,22,3,81,23,1.4705e+15,1
3,55,40,43,53,27,5,121,1.4705e+15,1
2,9,27,4,46,11,85,21,1.4705e+15,1
17,22,14,8,17,32,28,85,1.4705e+15,1
1,73,37,6,10,18,24,28,1.4705e+15,1
39,32,27,22,114,34,27,56,1.4705e+15,1
30,0,9,1,44,49,35,22,1.4705e+15,1
60,2,24,52,66,93,90,88,1.4705e+15,1
52,18,76,73,14,75,11,30,1.4705e+15,1
39,47,21,0,55,9,36,83,1.4705e+15,1
20,11,4,3,40,3,30,55,1.4705e+15,1
22,27,11,5,70,50,13,33,1.4705e+15,1
43,12,5,11,46,54,16,123,1.4705e+15,1
10,26,35,30,78,27,18,103,1.4705e+15,1
25,10,3,32,68,32,101,2,1.4705e+15,1
17,14,29,28,71,25,44,95,1.4705e+15,1
9,9,7,37,58,65,92,128,1.4705e+15,1
26,57,9,23,91,28,10,47,1.4705e+15,1
17,69,50,6,31,105,91,81,1.4705e+15,1
39,76,37,6,2,128,128,104,1.4705e+15,1
44,10,21,13,31,98,110,70,1.4705e+15,1
42,41,50,34,62,118,127,104,1.4705e+15,1
83,30,7,8,68,85,17,116,1.4705e+15,1
2,24,4,10,52,70,121,25,1.4705e+15,1
75,20,9,0,60,66,127,29,1.4705e+15,1
33,52,14,22,127,8,4,39,1.4705e+15,1
77,15,33,54,89,115,128,42,1.4705e+15,1
30,18,27,40,62,33,117,44,1.4705e+15,1
13,5,22,12,24,0,46,111,1.4705e+15,1
4,8,4,35,96,2,23,32,1.4705e+15,1
20,23,9,49,127,26,16,53,1.4705e+15,1
18,39,4,29,95,11,75,21,1.4705e+15,1
18,0,13,37,37,30,77,128,1.4705e+15,1
24,10,14,17,5,20,88,127,1.4705e+15,1
9,23,0,14,43,26,19,24,1.4705e+15,1
14,40,32,30,37,57,93,126,1.4705e+15,1
83,1,60,56,70,17,78,72,1.4705e+15,1
7,25,18,1,39,16,120,35,1.4705e+15,1
34,14,14,61,121,5,36,23,1.4705e+15,1
4,13,15,1,30,6,57,31,1.4705e+15,1
29,16,4,14,104,19,32,28,1.4705e+15,1
21,27,5,35,46,47,55,2,1.4705e+15,1
7,13,0,12,65,19,73,9,1.4705e+15,1
60,15,12,19,72,77,128,61,1.4705e+15,1
103,19,8,14,6,4,23,4,1.4705e+15,1
3,11,7,26,88,52,100,8,1.4705e+15,1
118,30,45,11,32,33,65,0,1.4705e+15,1
36,1,6,75,99,78,54,39,1.4705e+15,1
36,4,3,30,22,14,31,8,1.4705e+15,1
56,13,9,30,19,29,5,19,1.4705e+15,1
45,17,3,18,81,37,40,27,1.4705e+15,1
64,25,15,6,7,63,32,18,1.4705e+15,1
11,2,8,10,20,9,26,34,1.4705e+15,1
17,30,15,35,6,6,44,13,1.4705e+15,1
51,38,15,16,20,53,23,0,1.4705e+15,1
88,22,10,39,88,127,44,26,1.4705e+15,1
7,8,11,27,87,127,7,22,1.4705e+15,1
42,26,1,15,17,127,6,5,1.4705e+15,1
14,3,3,7,1,9,11,12,1.4705e+15,1
1,7,1,11,37,82,22,29,1.4705e+15,1
54,20,8,24,77,128,17,15,1.4705e+15,1
29,6,7,8,34,128,8,16,1.4705e+15,1
59,19,16,17,3,122,0,17,1.4705e+15,1
31,17,12,2,16,121,4,21,1.4705e+15,1
37,9,4,28,66,128,4,7,1.4705e+15,1
62,20,5,29,37,110,5,0,1.4705e+15,1
36,2,6,6,17,117,10,25,1.4705e+15,1
43,1,2,34,7,80,4,17,1.4705e+15,1
1,16,20,52,26,8,8,0,1.4705e+15,1
37,23,8,7,11,16,16,33,1.4705e+15,1
61,5,6,8,3,33,5,21,1.4705e+15,1
45,16,6,12,5,51,10,28,1.4705e+15,1
25,0,5,24,4,60,5,11,1.4705e+15,1
50,3,2,1,9,11,13,20,1.4705e+15,1
64,18,14,8,12,41,6,13,1.4705e+15,1
27,9,9,3,1,9,8,3,1.4705e+15,1
9,4,5,8,2,2,2,10,1.4705e+15,1
11,3,3,3,6,8,1,9,1.4705e+15,1
12,4,1,4,16,30,2,1,1.4705e+15,1
32,8,6,5,17,30,17,8,1.4705e+15,1
2,1,1,7,12,8,6,17,1.4705e+15,1
18,2,0,9,12,11,7,8,1.4705e+15,1
22,7,5,10,0,9,4,6,1.4705e+15,1
46,8,1,18,16,9,13,7,1.4705e+15,1
54,23,10,6,6,10,2,15,1.4705e+15,1
14,3,6,4,5,8,7,3,1.4705e+15,1
47,12,4,16,9,9,0,1,1.4705e+15,1
1,2,9,13,5,20,18,0,1.4705e+15,1
1,2,0,17,1,37,1,2,1.4705e+15,1
24,5,1,9,3,8,5,2,1.4705e+15,1
7,7,2,10,7,5,4,1,1.4705e+15,1
36,10,9,16,3,3,2,3,1.4705e+15,1
28,9,4,4,2,22,19,7,1.4705e+15,1
11,2,1,10,3,1,4,7,1.4705e+15,1
17,10,6,1,2,1,13,16,1.4705e+15,1
8,6,2,5,2,17,4,5,1.4705e+15,1
20,2,4,8,7,2,3,21,1.4705e+15,1
16,3,1,8,1,2,9,15,1.4705e+15,1
18,0,3,2,1,3,1,8,1.4705e+15,1
38,13,8,7,3,9,2,13,1.4705e+15,1
33,7,2,2,1,3,3,7,1.4705e+15,1
64,17,12,7,3,6,6,6,1.4705e+15,1
19,0,1,7,5,3,3,2,1.4705e+15,1
70,19,8,5,0,13,4,0,1.4705e+15,1
36,10,9,3,2,4,6,6,1.4705e+15,1
12,5,4,2,0,2,2,3,1.4705e+15,1
14,1,0,0,4,13,2,3,1.4705e+15,1
56,0,8,3,5,8,0,3,1.4705e+15,1
18,2,4,6,3,16,4,8,1.4705e+15,1
8,1,4,14,3,9,2,8,1.4705e+15,1
2,3,3,15,9,8,4,9,1.4705e+15,1
7,3,3,7,1,5,2,4,1.4705e+15,1
48,8,0,14,1,13,5,4,1.4705e+15,1
14,12,2,6,2,4,5,10,1.4705e+15,1
16,0,1,3,0,3,1,2,1.4705e+15,1
49,12,3,3,0,7,3,1,1.4705e+15,1
11,1,1,2,3,17,7,7,1.4705e+15,1
12,5,3,3,0,6,3,5,1.4705e+15,1
33,1,2,6,1,10,3,6,1.4705e+15,1
36,10,7,2,1,4,2,3,1.4705e+15,1
15,1,4,0,3,4,2,4,1.4705e+15,1
7,3,2,2,2,9,2,0,1.4705e+15,1
22,1,4,2,3,8,7,10,1.4705e+15,1
42,6,7,3,1,6,7,2,1.4705e+15,1
17,9,4,3,1,4,2,8,1.4705e+15,1
7,1,2,0,1,7,0,5,1.4705e+15,1
11,2,0,1,3,1,0,3,1.4705e+15,1
18,7,9,5,4,5,10,12,1.4705e+15,1
16,7,0,0,0,4,1,8,1.4705e+15,1
2,1,4,4,1,21,3,13,1.4705e+15,1
25,5,0,4,0,26,4,3,1.4705e+15,1
66,16,8,1,1,30,7,2,1.4705e+15,1
21,10,8,1,3,8,5,5,1.4705e+15,1
0,3,2,4,2,43,15,10,1.4705e+15,1
19,0,1,4,1,10,2,1,1.4705e+15,1
10,3,4,1,1,1,1,3,1.4705e+15,1
25,1,2,2,0,1,2,2,1.4705e+15,1
29,1,2,1,1,11,3,2,1.4705e+15,1
6,1,3,2,2,4,3,3,1.4705e+15,1
23,10,8,1,0,18,3,14,1.4705e+15,1
59,15,11,1,1,9,6,10,1.4705e+15,1
16,1,0,5,2,0,3,1,1.4705e+15,1
18,2,1,3,4,4,6,14,1.4705e+15,1
12,5,5,3,1,13,7,5,1.4705e+15,1
12,0,4,3,3,6,0,6,1.4705e+15,1
30,0,1,1,1,6,1,2,1.4705e+15,1
40,5,3,4,2,6,4,13,1.4705e+15,1
48,18,9,7,2,10,11,19,1.4705e+15,1
39,11,1,6,3,2,5,11,1.4705e+15,1
32,9,7,5,5,6,3,8,1.4705e+15,1
30,8,2,4,3,17,1,3,1.4705e+15,1
27,3,1,0,1,6,2,16,1.4705e+15,1
3,3,2,5,4,13,6,16,1.4705e+15,1
44,9,4,3,4,5,0,5,1.4705e+15,1
44,14,7,3,2,1,4,5,1.4705e+15,1
15,3,4,2,4,5,6,4,1.4705e+15,1
15,9,3,1,2,6,4,15,1.4705e+15,1
27,11,9,4,5,17,5,23,1.4705e+15,1
89,20,7,5,3,4,4,12,1.4705e+15,1
36,9,4,1,3,5,4,4,1.4705e+15,1
6,5,5,3,4,7,1,0,1.4705e+15,1
9,5,0,5,1,10,0,5,1.4705e+15,1
28,10,0,2,2,2,4,6,1.4705e+15,1
52,7,4,1,2,5,5,11,1.4705e+15,1
20,4,8,9,5,4,3,6,1.4705e+15,1
61,17,1,4,1,10,2,6,1.4705e+15,1
74,24,10,6,5,7,5,8,1.4705e+15,1
7,3,7,6,2,2,7,9,1.4705e+15,1
15,5,3,2,1,13,0,5,1.4705e+15,1
4,2,3,4,1,43,3,3,1.4705e+15,1
10,8,0,5,6,25,2,6,1.4705e+15,1
27,11,3,6,5,8,4,16,1.4705e+15,1
21,5,2,2,2,11,7,8,1.4705e+15,1
16,0,4,3,2,3,0,2,1.4705e+15,1
31,2,1,2,4,10,7,7,1.4705e+15,1
19,15,6,1,0,17,2,6,1.4705e+15,1
46,15,6,4,2,5,4,7,1.4705e+15,1
41,10,5,1,3,5,4,1,1.4705e+15,1
52,16,8,3,2,8,4,11,1.4705e+15,1
5,2,0,0,0,13,0,2,1.4705e+15,1
92,24,4,3,2,15,2,16,1.4705e+15,1
21,2,5,4,4,8,2,13,1.4705e+15,1
18,3,2,5,4,4,7,24,1.4705e+15,1
39,1,4,1,0,6,3,9,1.4705e+15,1
16,11,6,1,2,15,3,0,1.4705e+15,1
51,16,3,3,6,31,6,3,1.4705e+15,1
32,5,3,1,5,43,9,5,1.4705e+15,1
1,0,6,0,0,9,4,6,1.4705e+15,1
33,6,6,5,2,1,1,6,1.4705e+15,1
8,10,8,6,3,11,1,9,1.4705e+15,1
65,19,6,1,2,24,9,21,1.4705e+15,1
20,8,1,8,6,4,5,2,1.4705e+15,1
58,6,3,1,1,21,2,5,1.4705e+15,1
15,6,3,0,0,30,2,3,1.4705e+15,1
26,6,0,1,5,41,9,4,1.4705e+15,1
6,6,5,3,2,24,2,10,1.4705e+15,1
14,0,2,1,1,11,5,5,1.4705e+15,1
33,29,12,6,3,12,7,18,1.4705e+15,1
6,14,2,0,1,16,3,5,1.4705e+15,1
57,11,6,4,1,4,7,8,1.4705e+15,1
5,4,8,8,2,16,5,16,1.4705e+15,1
20,9,1,2,1,11,8,0,1.4705e+15,1
96,14,4,1,2,0,4,10,1.4705e+15,1
53,3,2,4,4,6,1,3,1.4705e+15,1
33,7,9,7,1,4,5,9,1.4705e+15,1
21,10,4,9,7,14,9,31,1.4705e+15,1
100,19,8,8,9,2,5,2,1.4705e+15,1
58,2,4,4,0,4,4,12,1.4705e+15,1
33,2,5,0,1,5,5,10,1.4705e+15,1
4,13,10,4,0,25,13,38,1.4705e+15,1
43,17,3,2,0,3,0,35,1.4705e+15,1
1,11,9,8,3,17,2,9,1.4705e+15,1
1,2,3,1,0,8,5,15,1.4705e+15,1
43,5,2,1,3,35,24,33,1.4705e+15,1
65,9,8,2,1,5,7,25,1.4705e+15,1
44,5,5,1,2,16,7,26,1.4705e+15,1
27,7,7,6,6,7,3,4,1.4705e+15,1
52,6,1,2,3,19,4,24,1.4705e+15,1
44,6,3,3,3,6,4,10,1.4705e+15,1
32,3,4,5,4,7,3,16,1.4705e+15,1
52,15,7,2,3,6,0,38,1.4705e+15,1
3,1,0,1,1,1,1,2,1.4705e+15,2
1,1,3,1,2,4,2,5,1.4705e+15,2
1,2,2,1,0,1,2,6,1.4705e+15,2
0,1,0,3,3,2,3,0,1.4705e+15,2
10,5,2,1,2,10,1,5,1.4705e+15,2
5,4,3,5,3,4,2,1,1.4705e+15,2
3,2,1,1,0,2,2,2,1.4705e+15,2
1,1,1,3,1,2,1,0,1.4705e+15,2
61,12,1,0,1,1,2,6,1.4705e+15,2
40,12,7,1,0,6,4,6,1.4705e+15,2
5,1,1,1,1,4,3,1,1.4705e+15,2
25,2,4,2,1,0,1,2,1.4705e+15,2
1,2,2,0,1,5,1,3,1.4705e+15,2
6,6,2,1,2,1,1,3,1.4705e+15,2
2,3,4,2,1,4,0,1,1.4705e+15,2
7,3,1,1,1,1,1,4,1.4705e+15,2
9,2,0,2,0,1,1,1,1.4705e+15,2
28,2,1,1,2,4,3,1,1.4705e+15,2
21,6,2,2,0,2,5,3,1.4705e+15,2
3,3,1,1,0,2,3,1,1.4705e+15,2
25,5,1,1,2,3,1,6,1.4705e+15,2
51,10,6,2,1,7,1,9,1.4705e+15,2
18,9,8,4,2,1,5,7,1.4705e+15,2
0,9,9,7,4,1,6,0,1.4705e+15,2
11,2,1,2,1,5,5,4,1.4705e+15,2
33,1,2,0,3,2,3,1,1.4705e+15,2
32,7,7,4,1,18,5,1,1.4705e+15,2
9,1,3,0,1,24,9,6,1.4705e+15,2
12,1,1,4,2,1,2,3,1.4705e+15,2
10,4,1,0,2,11,8,6,1.4705e+15,2
12,8,3,4,0,16,4,2,1.4705e+15,2
28,8,5,0,1,6,3,7,1.4705e+15,2
20,7,1,1,0,4,1,2,1.4705e+15,2
17,6,2,2,1,2,2,4,1.4705e+15,2
4,0,1,1,4,10,5,1,1.4705e+15,2
6,2,3,3,0,3,1,5,1.4705e+15,2
27,8,1,2,0,0,0,2,1.4705e+15,2
18,2,1,1,1,2,1,3,1.4705e+15,2
1,7,0,1,0,6,5,5,1.4705e+15,2
3,0,1,1,2,6,3,0,1.4705e+15,2
24,1,1,1,2,2,3,3,1.4705e+15,2
5,2,4,3,2,5,2,3,1.4705e+15,2
23,6,7,6,3,7,3,2,1.4705e+15,2
5,2,4,1,1,1,1,0,1.4705e+15,2
14,3,0,1,0,1,2,5,1.4705e+15,2
20,0,3,2,1,2,1,3,1.4705e+15,2
6,2,1,1,2,7,1,3,1.4705e+15,2
2,2,0,1,0,16,9,4,1.4705e+15,2
20,1,2,2,1,1,1,4,1.4705e+15,2
3,4,0,1,0,0,0,2,1.4705e+15,2
10,6,1,3,1,3,0,1,1.4705e+15,2
9,1,1,0,0,4,1,3,1.4705e+15,2
1,4,7,3,3,0,1,1,1.4705e+15,2
5,4,4,0,1,1,1,2,1.4705e+15,2
3,1,2,0,2,7,1,2,1.4705e+15,2
19,3,2,2,3,0,1,1,1.4705e+15,2
36,5,3,3,3,3,2,1,1.4705e+15,2
17,2,1,2,2,1,1,6,1.4705e+15,2
23,9,2,2,2,2,1,5,1.4705e+15,2
18,6,1,1,1,2,1,1,1.4705e+15,2
1,2,5,3,3,0,0,4,1.4705e+15,2
12,1,2,2,1,1,0,1,1.4705e+15,2
17,8,4,4,2,6,3,10,1.4705e+15,2
9,2,3,1,1,3,2,0,1.4705e+15,2
1,1,2,3,1,3,2,3,1.4705e+15,2
9,1,0,0,1,1,2,3,1.4705e+15,2
3,0,3,0,1,2,1,2,1.4705e+15,2
15,2,3,1,1,4,5,4,1.4705e+15,2
28,4,1,0,2,4,3,3,1.4705e+15,2
14,1,2,1,1,5,1,1,1.4705e+15,2
13,2,0,3,2,1,3,9,1.4705e+15,2
8,6,4,4,1,4,3,1,1.4705e+15,2
5,9,5,3,3,7,7,8,1.4705e+15,2
4,3,5,3,1,4,1,1,1.4705e+15,2
19,3,4,0,1,0,3,2,1.4705e+15,2
5,4,1,0,0,3,1,4,1.4705e+15,2
10,1,0,0,1,4,1,3,1.4705e+15,2
8,2,2,1,2,8,5,5,1.4705e+15,2
3,5,2,4,1,4,0,0,1.4705e+15,2
1,2,3,0,2,7,3,3,1.4705e+15,2
31,7,0,1,3,8,1,2,1.4705e+15,2
15,4,3,0,2,2,2,5,1.4705e+15,2
18,3,3,1,1,0,0,5,1.4705e+15,2
15,12,9,3,9,19,9,13,1.4705e+15,2
15,4,5,1,4,23,2,6,1.4705e+15,2
5,0,1,0,3,30,0,3,1.4705e+15,2
13,7,1,3,4,0,3,5,1.4705e+15,2
24,8,4,4,1,1,13,8,1.4705e+15,2
11,3,2,3,0,8,1,4,1.4705e+15,2
29,21,8,1,1,7,0,10,1.4705e+15,2
29,9,4,7,5,9,6,7,1.4705e+15,2
9,2,2,3,1,9,6,2,1.4705e+15,2
21,7,6,5,0,4,5,14,1.4705e+15,2
48,14,15,11,2,5,5,17,1.4705e+15,2
15,1,4,3,1,10,5,1,1.4705e+15,2
12,6,1,1,2,8,3,0,1.4705e+15,2
5,8,7,3,0,1,1,1,1.4705e+15,2
16,7,0,3,1,3,5,6,1.4705e+15,2
23,8,4,1,0,1,7,7,1.4705e+15,2
12,2,1,0,1,1,2,5,1.4705e+15,2
17,14,7,2,3,10,1,11,1.4705e+15,2
16,5,3,5,4,5,9,0,1.4705e+15,2
4,7,2,1,1,0,2,5,1.4705e+15,2
14,9,8,4,1,0,4,2,1.4705e+15,2
0,12,10,5,1,3,6,1,1.4705e+15,2
25,5,4,1,1,7,4,10,1.4705e+15,2
6,5,1,4,4,8,0,2,1.4705e+15,2
12,1,1,0,2,22,3,1,1.4705e+15,2
18,1,3,1,2,9,3,2,1.4705e+15,2
8,10,1,3,1,5,1,3,1.4705e+15,2
12,2,3,2,1,0,2,4,1.4705e+15,2
14,7,2,2,1,14,2,1,1.4705e+15,2
10,6,3,0,4,5,1,12,1.4705e+15,2
27,5,6,1,0,9,7,13,1.4705e+15,2
9,3,1,5,2,4,4,7,1.4705e+15,2
24,11,4,3,4,6,3,3,1.4705e+15,2
1,5,2,2,3,8,7,3,1.4705e+15,2
18,6,1,6,2,5,10,2,1.4705e+15,2
18,10,6,3,1,6,10,1,1.4705e+15,2
3,3,2,3,1,13,5,0,1.4705e+15,2
15,4,3,5,6,7,2,1,1.4705e+15,2
27,10,6,4,1,6,11,5,1.4705e+15,2
2,1,0,4,15,4,1,0,1.4705e+15,2
20,7,5,3,5,10,4,4,1.4705e+15,2
20,2,1,5,2,22,0,3,1.4705e+15,2
8,12,3,1,6,34,9,8,1.4705e+15,2
4,0,2,5,5,7,1,2,1.4705e+15,2
8,10,7,2,7,15,1,3,1.4705e+15,2
1,6,8,3,1,25,10,4,1.4705e+15,2
24,9,4,0,0,0,8,2,1.4705e+15,2
3,5,6,5,1,1,7,7,1.4705e+15,2
14,2,6,3,0,12,3,2,1.4705e+15,2
9,4,5,2,3,20,6,16,1.4705e+15,2
42,9,6,1,4,33,15,10,1.4705e+15,2
6,1,1,0,1,5,3,5,1.4705e+15,2
1,6,7,2,0,8,1,9,1.4705e+15,2
5,5,8,8,6,7,5,17,1.4705e+15,2
9,0,3,2,4,4,19,33,1.4705e+15,2
29,4,1,2,1,15,1,24,1.4705e+15,2
20,2,2,2,8,6,6,6,1.4705e+15,2
23,2,3,3,3,37,6,13,1.4705e+15,2
18,3,5,8,8,17,4,3,1.4705e+15,2
5,6,5,1,0,10,1,14,1.4705e+15,2
20,3,4,2,1,9,2,1,1.4705e+15,2
28,11,10,3,5,13,9,6,1.4705e+15,2
29,6,2,2,2,12,7,11,1.4705e+15,2
19,2,4,2,5,13,5,7,1.4705e+15,2
34,1,2,1,0,15,1,7,1.4705e+15,2
43,10,8,2,6,10,10,20,1.4705e+15,2
1,1,7,3,4,2,3,3,1.4705e+15,2
12,0,0,5,7,2,9,8,1.4705e+15,2
4,4,3,6,1,3,4,4,1.4705e+15,2
17,7,1,1,2,2,1,4,1.4705e+15,2
2,3,1,2,1,15,3,4,1.4705e+15,2
37,19,3,3,2,5,2,2,1.4705e+15,2
4,3,5,2,6,7,4,3,1.4705e+15,2
3,1,5,3,1,8,2,10,1.4705e+15,2
14,2,1,1,4,3,2,14,1.4705e+15,2
26,15,4,0,2,4,1,4,1.4705e+15,2
19,14,5,2,5,3,6,20,1.4705e+15,2
6,3,1,3,2,3,6,19,1.4705e+15,2
3,8,2,0,5,3,1,7,1.4705e+15,2
20,5,9,7,8,10,7,17,1.4705e+15,2
21,0,1,3,6,0,2,0,1.4705e+15,2
8,10,2,3,6,7,7,9,1.4705e+15,2
1,4,1,2,5,6,17,9,1.4705e+15,2
3,4,4,5,5,2,5,6,1.4705e+15,2
26,3,0,0,1,1,2,1,1.4705e+15,2
5,1,7,6,2,2,5,5,1.4705e+15,2
4,1,5,1,8,1,8,9,1.4705e+15,2
5,5,4,4,2,3,1,6,1.4705e+15,2
4,0,1,1,2,4,1,5,1.4705e+15,2
11,6,0,4,4,3,4,10,1.4705e+15,2
1,3,3,1,9,1,0,13,1.4705e+15,2
22,5,1,2,2,10,4,16,1.4705e+15,2
13,3,0,4,9,10,6,6,1.4705e+15,2
3,13,1,2,4,7,5,7,1.4705e+15,2
4,5,4,0,4,6,2,11,1.4705e+15,2
0,3,4,4,2,7,6,11,1.4705e+15,2
5,10,3,1,1,8,5,2,1.4705e+15,2
15,6,0,2,2,0,2,8,1.4705e+15,2
7,0,0,0,1,7,1,6,1.4705e+15,2
21,4,4,6,5,4,1,5,1.4705e+15,2
60,19,8,1,8,6,8,8,1.4705e+15,2
15,14,4,3,4,1,2,12,1.4705e+15,2
14,14,4,1,2,2,2,23,1.4705e+15,2
19,14,7,1,4,1,2,2,1.4705e+15,2
15,4,0,1,5,4,5,3,1.4705e+15,2
26,6,10,5,5,6,7,1,1.4705e+15,2
28,1,0,3,0,2,3,2,1.4705e+15,2
21,0,7,6,15,8,6,9,1.4705e+15,2
22,11,7,4,0,1,2,5,1.4705e+15,2
5,10,5,3,5,1,11,4,1.4705e+15,2
10,20,8,3,5,7,17,7,1.4705e+15,2
25,19,2,6,4,3,5,4,1.4705e+15,2
11,12,4,2,6,2,6,26,1.4705e+15,2
24,15,4,6,11,9,1,8,1.4705e+15,2
1,4,6,5,12,6,2,6,1.4705e+15,2
2,9,8,3,1,9,12,17,1.4705e+15,2
1,4,6,4,17,1,1,8,1.4705e+15,2
24,3,7,3,9,8,2,20,1.4705e+15,2
35,3,1,5,4,4,3,29,1.4705e+15,2
28,10,8,3,5,12,5,2,1.4705e+15,2
19,16,19,11,8,11,16,37,1.4705e+15,2
20,3,6,9,9,9,2,43,1.4705e+15,2
49,3,1,3,12,6,4,8,1.4705e+15,2
27,24,6,4,2,5,0,10,1.4705e+15,2
13,25,15,4,4,1,8,7,1.4705e+15,2
9,46,37,2,6,6,1,17,1.4705e+15,2
18,17,13,7,12,10,12,6,1.4705e+15,2
30,11,0,1,1,0,2,16,1.4705e+15,2
72,2,12,4,4,2,4,18,1.4705e+15,2
53,25,4,5,10,1,9,8,1.4705e+15,2
38,10,7,10,12,10,2,8,1.4705e+15,2
46,7,10,3,4,6,6,35,1.4705e+15,2
1,5,1,8,13,4,21,3,1.4705e+15,2
19,3,11,3,2,9,0,4,1.4705e+15,2
9,2,5,1,1,5,7,6,1.4705e+15,2
5,16,11,2,2,1,0,9,1.4705e+15,2
34,1,0,3,1,12,16,9,1.4705e+15,2
9,4,3,0,5,3,5,23,1.4705e+15,2
9,9,1,4,9,4,0,18,1.4705e+15,2
28,16,4,6,4,0,2,7,1.4705e+15,2
24,6,15,7,2,0,6,5,1.4705e+15,2
51,4,11,4,3,8,10,5,1.4705e+15,2
3,24,3,5,26,21,8,6,1.4705e+15,2
29,1,11,10,15,3,0,1,1.4705e+15,2
1,10,4,19,14,4,10,18,1.4705e+15,2
33,7,10,4,3,4,9,5,1.4705e+15,2
10,14,10,6,1,8,4,7,1.4705e+15,2
16,6,11,14,16,16,26,34,1.4705e+15,2
0,2,11,8,3,13,15,40,1.4705e+15,2
15,0,17,15,13,5,2,3,1.4705e+15,2
9,1,1,9,5,2,5,3,1.4705e+15,2
3,3,0,5,36,8,11,2,1.4705e+15,2
29,2,7,3,2,2,14,0,1.4705e+15,2
1,1,2,1,6,4,0,3,1.4705e+15,2
38,12,5,2,0,3,4,2,1.4705e+15,2
16,3,3,5,11,0,0,14,1.4705e+15,2
49,16,6,7,4,6,3,15,1.4705e+15,2
5,2,5,7,12,4,6,1,1.4705e+15,2
26,19,6,3,8,2,4,8,1.4705e+15,2
13,1,36,11,4,1,5,11,1.4705e+15,2
32,37,44,16,2,3,4,11,1.4705e+15,2
21,11,35,11,1,3,5,17,1.4705e+15,2
19,3,5,3,1,3,7,1,1.4705e+15,2
24,18,7,0,16,9,1,17,1.4705e+15,2
6,27,32,21,16,29,11,13,1.4705e+15,2
24,78,0,13,49,25,13,11,1.4705e+15,2
8,52,1,6,35,1,10,1,1.4705e+15,2
74,32,10,8,22,12,8,31,1.4705e+15,2
30,2,11,5,12,14,4,7,1.4705e+15,2
14,8,0,25,54,19,23,30,1.4705e+15,2
33,4,19,4,28,1,16,31,1.4705e+15,2
78,11,1,24,34,20,18,25,1.4705e+15,2
41,18,12,10,20,14,11,35,1.4705e+15,2
38,22,20,14,27,15,9,15,1.4705e+15,2
15,12,8,16,18,9,12,21,1.4705e+15,2
6,1,21,8,2,9,2,1,1.4705e+15,2
104,2,11,1,4,11,11,35,1.4705e+15,2
84,5,7,7,3,1,12,26,1.4705e+15,2
13,2,15,0,13,1,5,2,1.4705e+15,2
19,6,7,6,6,1,2,2,1.4705e+15,2
11,8,0,1,17,13,5,7,1.4705e+15,2
7,11,12,7,30,10,3,13,1.4705e+15,2
1,21,3,7,23,15,3,3,1.4705e+15,2
3,13,9,3,41,28,5,0,1.4705e+15,2
32,19,5,1,17,16,6,6,1.4705e+15,2
36,14,1,1,11,1,2,2,1.4705e+15,2
35,12,3,8,19,11,5,9,1.4705e+15,2
21,1,12,17,21,3,14,13,1.4705e+15,2
18,10,10,4,10,1,11,4,1.4705e+15,2
60,5,2,1,21,7,0,5,1.4705e+15,2
24,28,13,11,19,18,10,30,1.4705e+15,2
9,6,4,8,10,7,3,49,1.4705e+15,2
54,6,16,7,0,1,3,22,1.4705e+15,2
80,10,19,2,11,6,2,15,1.4705e+15,2
41,0,4,1,11,3,8,6,1.4705e+15,2
41,23,4,3,6,4,11,9,1.4705e+15,2
41,26,3,8,10,4,13,30,1.4705e+15,2
3,17,8,2,5,1,3,11,1.4705e+15,2
60,34,1,6,16,16,5,13,1.4705e+15,2
81,8,1,9,7,19,28,60,1.4705e+15,2
11,2,11,2,1,2,1,13,1.4705e+15,2
52,9,2,1,3,7,5,6,1.4705e+15,2
14,1,3,1,8,0,6,15,1.4705e+15,2
23,2,1,4,13,2,2,37,1.4705e+15,2
22,21,10,9,2,5,1,16,1.4705e+15,2
9,6,2,4,10,15,9,27,1.4705e+15,2
36,2,8,5,4,1,6,16,1.4705e+15,2
46,12,11,4,9,12,3,5,1.4705e+15,2
50,24,14,2,11,16,5,26,1.4705e+15,2
22,8,4,5,10,14,27,10,1.4705e+15,2
4,7,9,4,10,10,3,14,1.4705e+15,2
53,43,21,16,28,14,11,39,1.4705e+15,2
52,49,11,2,6,4,2,51,1.4705e+15,2
16,6,2,2,6,3,3,13,1.4705e+15,2
30,20,6,0,6,18,10,6,1.4705e+15,2
20,4,3,13,7,9,15,23,1.4705e+15,2
57,4,20,6,0,3,0,33,1.4705e+15,2
20,3,0,2,18,15,5,12,1.4705e+15,2
3,5,6,3,6,11,3,3,1.4705e+15,2
10,2,3,5,1,4,11,11,1.4705e+15,2
7,8,7,1,4,4,5,3,1.4705e+15,2
1,8,6,0,5,5,7,11,1.4705e+15,2
9,10,5,2,6,31,9,8,1.4705e+15,2
5,3,6,11,21,38,7,1,1.4705e+15,2
8,12,0,13,8,18,8,8,1.4705e+15,2
7,19,11,11,10,8,2,4,1.4705e+15,2
14,1,1,17,6,4,7,12,1.4705e+15,2
31,2,3,21,10,13,5,9,1.4705e+15,2
0,6,5,7,3,2,1,19,1.4705e+15,2
26,16,10,8,8,3,8,6,1.4705e+15,2
10,6,6,1,9,15,8,4,1.4705e+15,2
20,4,9,26,16,32,1,7,1.4705e+15,2
13,10,3,19,10,45,5,5,1.4705e+15,2
24,8,6,5,7,49,5,6,1.4705e+15,2
39,5,4,20,16,74,4,1,1.4705e+15,2
23,15,4,1,2,24,8,13,1.4705e+15,2
20,6,2,16,9,7,0,7,1.4705e+15,2
5,3,4,33,13,19,6,0,1.4705e+15,2
9,5,3,4,2,12,4,1,1.4705e+15,2
22,1,1,16,3,7,6,4,1.4705e+15,2
21,1,4,13,8,12,1,8,1.4705e+15,2
8,4,5,1,6,13,13,20,1.4705e+15,2
13,8,7,5,3,11,0,4,1.4705e+15,2
14,9,10,6,4,18,7,7,1.4705e+15,2
51,11,6,6,0,3,3,8,1.4705e+15,2
42,9,4,14,4,5,4,5,1.4705e+15,2
9,3,10,16,5,17,1,10,1.4705e+15,2
47,17,8,8,2,23,2,25,1.4705e+15,2
44,8,5,4,0,4,3,3,1.4705e+15,2
22,1,1,3,1,21,4,1,1.4705e+15,2
10,2,1,9,1,8,2,6,1.4705e+15,2
41,2,1,2,4,6,4,5,1.4705e+15,2
12,3,3,15,2,17,1,8,1.4705e+15,2
7,11,3,10,2,0,2,1,1.4705e+15,2
1,3,1,23,4,4,3,0,1.4705e+15,2
18,5,8,16,7,27,6,1,1.4705e+15,2
3,2,2,1,1,37,7,5,1.4705e+15,2
7,3,5,13,9,8,5,0,1.4705e+15,2
6,1,0,2,2,12,2,3,1.4705e+15,2
6,4,1,6,1,19,1,0,1.4705e+15,2
2,1,6,4,2,7,3,6,1.4705e+15,2
10,2,0,11,5,20,4,8,1.4705e+15,2
11,2,3,5,5,10,3,0,1.4705e+15,2
14,3,6,4,4,6,6,6,1.4705e+15,2
13,5,1,5,4,10,1,3,1.4705e+15,2
18,4,6,5,2,16,1,1,1.4705e+15,2
13,3,4,3,2,2,1,2,1.4705e+15,2
29,1,3,4,0,2,6,8,1.4705e+15,2
11,1,1,1,1,3,2,2,1.4705e+15,2
28,6,5,4,2,4,6,2,1.4705e+15,2
21,6,3,0,1,7,5,2,1.4705e+15,2
5,2,1,1,2,5,3,3,1.4705e+15,2
20,5,4,2,3,5,2,7,1.4705e+15,2
25,7,0,6,2,9,0,8,1.4705e+15,2
23,5,2,6,0,5,0,10,1.4705e+15,2
13,1,1,5,2,7,3,3,1.4705e+15,2
17,5,9,8,2,7,1,3,1.4705e+15,2
5,1,4,2,4,9,4,2,1.4705e+15,2
30,6,7,3,6,1,0,0,1.4705e+15,2
18,15,11,8,5,2,6,1,1.4705e+15,2
11,8,2,0,1,2,3,6,1.4705e+15,2
5,7,1,1,3,7,3,4,1.4705e+15,2
45,8,3,1,2,6,1,7,1.4705e+15,2
16,3,5,5,6,11,10,7,1.4705e+15,2
27,5,3,3,1,7,2,10,1.4705e+15,2
5,7,6,0,0,7,4,7,1.4705e+15,2
41,8,3,3,2,5,1,6,1.4705e+15,2
12,6,6,3,0,11,2,2,1.4705e+15,2
17,8,6,11,2,5,0,3,1.4705e+15,2
28,4,5,19,4,3,3,7,1.4705e+15,2
24,4,1,6,3,1,3,5,1.4705e+15,2
19,4,0,3,1,10,6,4,1.4705e+15,2
19,0,5,7,0,8,2,1,1.4705e+15,2
19,5,1,2,0,3,3,5,1.4705e+15,2
9,1,1,3,2,11,1,6,1.4705e+15,2
20,6,0,4,3,19,2,3,1.4705e+15,2
43,9,0,9,2,2,1,8,1.4705e+15,2
11,6,1,7,3,15,0,9,1.4705e+15,2
24,2,3,3,2,17,6,4,1.4705e+15,2
15,0,0,3,2,5,1,1,1.4705e+15,2
21,4,5,6,1,2,2,4,1.4705e+15,2
52,15,8,3,1,2,7,8,1.4705e+15,2
19,11,5,4,1,6,3,8,1.4705e+15,2
26,1,1,1,1,4,1,0,1.4705e+15,2
7,1,5,4,2,5,1,0,1.4705e+15,2
6,2,3,2,2,0,0,4,1.4705e+15,2
3,4,0,4,3,5,1,3,1.4705e+15,2
40,12,10,1,2,10,5,11,1.4705e+15,2
33,11,10,6,3,9,6,4,1.4705e+15,2
20,1,3,0,2,1,2,3,1.4705e+15,2
9,5,1,2,2,6,2,5,1.4705e+15,2
20,5,2,5,0,1,1,1,1.4705e+15,2
5,1,4,10,3,4,0,0,1.4705e+15,2
13,5,4,1,0,7,0,0,1.4705e+15,2
15,1,0,3,2,7,4,0,1.4705e+15,2
25,20,9,6,5,1,3,12,1.4705e+15,2
21,5,3,3,0,2,3,6,1.4705e+15,0
29,6,0,0,0,8,4,4,1.4705e+15,0
18,4,2,0,1,2,1,2,1.4705e+15,0
5,2,7,1,2,4,5,4,1.4705e+15,0
14,8,2,1,0,6,1,3,1.4705e+15,0
11,2,2,3,2,23,4,2,1.4705e+15,0
0,1,2,2,2,2,1,3,1.4705e+15,0
17,6,3,0,1,3,4,4,1.4705e+15,0
14,3,1,3,1,2,1,3,1.4705e+15,0
19,4,3,3,1,7,1,0,1.4705e+15,0
17,2,1,0,0,1,2,1,1.4705e+15,0
4,3,0,2,0,1,1,1,1.4705e+15,0
5,4,1,2,2,9,4,1,1.4705e+15,0
3,2,3,3,0,16,3,4,1.4705e+15,0
13,5,0,2,4,7,5,0,1.4705e+15,0
15,0,1,1,2,1,1,1,1.4705e+15,0
4,1,4,3,1,1,0,3,1.4705e+15,0
21,4,2,2,0,0,0,3,1.4705e+15,0
18,11,2,2,0,2,3,6,1.4705e+15,0
7,4,4,2,3,1,0,2,1.4705e+15,0
10,1,1,1,1,2,1,4,1.4705e+15,0
3,0,0,2,1,2,1,1,1.4705e+15,0
3,2,1,2,1,3,3,2,1.4705e+15,0
18,2,2,1,1,2,1,3,1.4705e+15,0
38,8,3,1,2,10,1,5,1.4705e+15,0
17,1,0,2,2,21,6,0,1.4705e+15,0
9,1,0,0,1,5,2,2,1.4705e+15,0
9,5,3,5,0,6,1,4,1.4705e+15,0
16,2,1,1,0,0,2,1,1.4705e+15,0
6,4,3,3,1,10,3,3,1.4705e+15,0
42,6,4,4,2,2,1,5,1.4705e+15,0
21,7,0,5,1,7,5,2,1.4705e+15,0
12,4,4,6,1,3,1,3,1.4705e+15,0
3,2,0,1,0,1,0,2,1.4705e+15,0
4,1,1,2,1,2,1,3,1.4705e+15,0
22,2,0,1,0,6,2,2,1.4705e+15,0
8,4,1,1,1,5,3,4,1.4705e+15,0
11,3,1,2,1,4,2,2,1.4705e+15,0
3,3,4,1,2,1,5,2,1.4705e+15,0
28,6,5,4,4,3,4,7,1.4705e+15,0
24,6,3,0,1,4,0,0,1.4705e+15,0
28,5,1,1,1,7,0,1,1.4705e+15,0
20,6,2,3,1,1,4,5,1.4705e+15,0
8,4,3,1,1,3,2,2,1.4705e+15,0
2,0,1,1,2,1,0,3,1.4705e+15,0
10,3,2,3,2,2,1,0,1.4705e+15,0
4,1,0,2,2,12,1,3,1.4705e+15,0
4,3,5,4,1,8,1,3,1.4705e+15,0
1,2,4,4,0,2,2,1,1.4705e+15,0
9,1,2,0,0,6,6,4,1.4705e+15,0
14,2,1,1,2,8,4,2,1.4705e+15,0
13,5,3,1,2,5,1,2,1.4705e+15,0
26,8,4,3,1,4,1,1,1.4705e+15,0
12,5,3,2,5,1,1,3,1.4705e+15,0
6,3,0,1,0,1,0,1,1.4705e+15,0
27,6,7,4,1,0,0,3,1.4705e+15,0
9,0,1,0,2,1,1,3,1.4705e+15,0
15,4,0,0,2,6,4,5,1.4705e+15,0
2,3,0,2,0,5,2,3,1.4705e+15,0
24,3,3,1,0,3,0,6,1.4705e+15,0
8,2,0,1,0,2,4,3,1.4705e+15,0
12,0,2,2,1,1,1,4,1.4705e+15,0
1,1,2,1,0,1,0,5,1.4705e+15,0
10,0,1,2,0,0,4,6,1.4705e+15,0
13,2,1,4,4,5,4,6,1.4705e+15,0
4,2,1,2,2,9,1,1,1.4705e+15,0
4,2,1,3,1,23,8,1,1.4705e+15,0
5,2,4,0,0,1,1,4,1.4705e+15,0
14,0,1,2,2,1,2,1,1.4705e+15,0
11,2,0,0,0,1,1,0,1.4705e+15,0
6,2,0,1,0,5,1,2,1.4705e+15,0
23,0,4,3,4,11,3,7,1.4705e+15,0
27,3,3,1,0,8,3,4,1.4705e+15,0
25,7,5,1,1,1,2,4,1.4705e+15,0
1,1,2,0,1,1,1,2,1.4705e+15,0
6,0,2,1,0,0,3,5,1.4705e+15,0
3,0,5,1,1,3,0,2,1.4705e+15,0
1,4,4,2,1,1,3,1,1.4705e+15,0
12,5,3,2,0,4,3,3,1.4705e+15,0
2,6,2,1,0,1,3,3,1.4705e+15,0
26,2,2,1,2,3,1,7,1.4705e+15,0
12,0,2,4,1,3,3,1,1.4705e+15,0
19,3,3,1,4,8,5,3,1.4705e+15,0
11,5,4,2,2,10,2,4,1.4705e+15,0
29,5,2,0,1,4,1,1,1.4705e+15,0
6,0,3,0,1,4,2,2,1.4705e+15,0
18,3,3,1,1,12,2,4,1.4705e+15,0
8,2,1,1,1,7,6,3,1.4705e+15,0
6,1,1,2,2,0,1,3,1.4705e+15,0
9,0,0,4,2,7,2,7,1.4705e+15,0
0,2,3,0,1,7,0,1,1.4705e+15,0
13,1,4,2,0,3,3,2,1.4705e+15,0
1,2,3,1,0,4,1,2,1.4705e+15,0
9,2,2,1,3,1,0,1,1.4705e+15,0
5,4,4,3,1,1,1,1,1.4705e+15,0
5,2,2,0,1,1,1,1,1.4705e+15,0
3,1,1,3,0,0,0,1,1.4705e+15,0
5,2,1,1,0,1,1,1,1.4705e+15,0
11,2,1,4,3,3,3,0,1.4705e+15,0
14,6,4,3,1,3,1,6,1.4705e+15,0
10,0,3,2,1,8,2,1,1.4705e+15,0
11,5,7,3,2,1,1,1,1.4705e+15,0
1,4,1,1,0,5,2,1,1.4705e+15,0
13,1,4,1,1,1,0,5,1.4705e+15,0
20,3,0,0,0,4,1,5,1.4705e+15,0
2,4,2,4,1,2,2,3,1.4705e+15,0
6,0,4,2,2,1,3,0,1.4705e+15,0
22,5,4,1,1,0,0,4,1.4705e+15,0
1,2,1,1,1,3,5,1,1.4705e+15,0
8,1,1,0,0,1,1,1,1.4705e+15,0
6,2,2,1,1,4,0,1,1.4705e+15,0
20,5,1,2,1,5,3,6,1.4705e+15,0
33,8,1,2,3,4,4,7,1.4705e+15,0
23,4,1,2,0,0,2,3,1.4705e+15,0
35,7,1,0,0,2,4,6,1.4705e+15,0
0,5,3,3,2,4,0,1,1.4705e+15,0
10,2,0,0,1,2,3,1,1.4705e+15,0
19,4,1,3,2,0,2,1,1.4705e+15,0
14,0,9,8,3,5,3,0,1.4705e+15,0
20,5,4,1,1,4,5,3,1.4705e+15,0
1,3,5,0,0,1,1,1,1.4705e+15,0
12,3,4,6,0,3,1,2,1.4705e+15,0
13,6,3,1,0,2,2,8,1.4705e+15,0
16,7,4,5,4,4,2,4,1.4705e+15,0
6,4,0,2,2,4,3,3,1.4705e+15,0
1,3,4,3,2,7,4,2,1.4705e+15,0
21,0,1,4,2,5,4,5,1.4705e+15,0
12,2,3,3,2,2,2,0,1.4705e+15,0
5,2,1,1,0,3,0,1,1.4705e+15,0
2,2,2,2,3,3,2,2,1.4705e+15,0
4,3,0,2,0,1,3,1,1.4705e+15,0
1,5,5,5,2,3,2,2,1.4705e+15,0
6,1,2,1,1,2,0,0,1.4705e+15,0
2,0,2,4,1,1,1,1,1.4705e+15,0
43,4,2,2,0,1,2,7,1.4705e+15,0
7,0,2,0,1,6,3,2,1.4705e+15,0
18,1,5,6,1,0,0,2,1.4705e+15,0
20,2,6,3,3,1,2,2,1.4705e+15,0
33,2,3,1,1,2,1,3,1.4705e+15,0
17,5,6,2,4,3,4,4,1.4705e+15,0
1,1,1,0,0,1,0,1,1.4705e+15,0
21,4,2,2,3,5,4,5,1.4705e+15,0
10,3,1,0,0,5,4,3,1.4705e+15,0
15,0,1,0,3,1,2,1,1.4705e+15,0
16,0,5,2,0,1,2,3,1.4705e+15,0
18,5,4,2,0,4,5,7,1.4705e+15,0
0,2,0,3,3,3,3,1,1.4705e+15,0
1,3,2,1,1,10,3,2,1.4705e+15,0
23,5,2,1,3,24,7,8,1.4705e+15,0
14,1,1,1,1,3,2,1,1.4705e+15,0
9,3,4,1,1,2,2,2,1.4705e+15,0
2,5,8,4,1,0,5,6,1.4705e+15,0
5,4,2,2,1,1,0,1,1.4705e+15,0
4,0,6,4,2,10,1,2,1.4705e+15,0
4,4,6,4,1,1,1,1,1.4705e+15,0
5,2,0,0,1,1,1,2,1.4705e+15,0
6,0,2,2,3,3,3,2,1.4705e+15,0
13,3,3,2,1,8,2,2,1.4705e+15,0
5,2,4,2,2,2,2,2,1.4705e+15,0
5,4,2,3,2,3,3,0,1.4705e+15,0
6,1,2,0,1,3,1,3,1.4705e+15,0
12,0,1,1,1,2,1,6,1.4705e+15,0
5,1,1,0,0,1,1,1,1.4705e+15,0
22,4,1,0,0,5,3,3,1.4705e+15,0
15,7,9,3,2,1,1,3,1.4705e+15,0
4,2,3,1,1,1,0,0,1.4705e+15,0
18,1,2,0,2,3,1,5,1.4705e+15,0
18,4,0,1,1,5,1,6,1.4705e+15,0
2,4,1,5,1,9,3,1,1.4705e+15,0
2,2,1,1,1,5,4,2,1.4705e+15,0
24,6,3,0,1,2,3,3,1.4705e+15,0
14,6,4,1,2,0,1,2,1.4705e+15,0
13,1,3,1,1,7,5,4,1.4705e+15,0
10,5,4,4,2,4,1,3,1.4705e+15,0
10,2,1,2,1,3,3,1,1.4705e+15,0
6,4,1,1,0,1,0,1,1.4705e+15,0
1,3,0,1,1,1,1,2,1.4705e+15,0
21,2,4,3,2,6,2,4,1.4705e+15,0
35,3,6,0,1,9,3,2,1.4705e+15,0
10,1,2,0,0,12,0,5,1.4705e+15,0
7,0,1,4,3,0,0,3,1.4705e+15,0
11,1,3,2,1,4,1,2,1.4705e+15,0
34,2,0,1,0,1,1,5,1.4705e+15,0
9,2,3,1,1,10,1,4,1.4705e+15,0
3,4,3,3,1,22,4,1,1.4705e+15,0
16,5,4,2,3,1,0,2,1.4705e+15,0
7,1,1,1,1,1,1,5,1.4705e+15,0
4,0,1,1,2,5,0,1,1.4705e+15,0
6,2,1,2,0,8,2,0,1.4705e+15,0
12,0,1,3,1,3,0,2,1.4705e+15,0
3,0,1,3,1,1,1,0,1.4705e+15,0
1,3,2,0,1,6,4,2,1.4705e+15,0
5,3,0,1,2,8,6,1,1.4705e+15,0
9,7,5,3,2,3,4,4,1.4705e+15,0
5,1,3,5,0,2,3,2,1.4705e+15,0
24,3,3,0,2,3,2,6,1.4705e+15,0
7,1,5,2,1,0,1,1,1.4705e+15,0
19,1,1,3,1,1,0,1,1.4705e+15,0
33,4,2,0,1,0,1,1,1.4705e+15,0
27,11,11,7,3,5,5,7,1.4705e+15,0
6,2,2,1,0,2,0,2,1.4705e+15,0
10,3,3,1,0,1,3,0,1.4705e+15,0
10,3,3,2,0,8,0,3,1.4705e+15,0
25,3,3,1,1,12,1,3,1.4705e+15,0
9,2,1,1,0,2,5,2,1.4705e+15,0
28,4,4,5,1,6,5,4,1.4705e+15,0
36,7,6,5,3,1,3,8,1.4705e+15,0
10,0,3,3,0,8,4,9,1.4705e+15,0
6,1,0,0,2,6,5,9,1.4705e+15,0
12,5,1,0,1,1,2,1,1.4705e+15,0
6,3,4,4,2,3,3,1,1.4705e+15,0
6,2,0,2,1,0,2,1,1.4705e+15,0
8,0,1,2,2,0,4,3,1.4705e+15,0
10,3,1,2,0,3,4,5,1.4705e+15,0
7,2,1,2,2,3,0,2,1.4705e+15,0
17,0,0,1,0,4,2,0,1.4705e+15,0
9,2,1,1,0,4,3,2,1.4705e+15,0
7,3,2,1,1,2,1,2,1.4705e+15,0
12,1,1,1,1,4,1,0,1.4705e+15,0
15,1,1,1,0,2,1,0,1.4705e+15,0
17,1,5,1,0,2,3,2,1.4705e+15,0
9,4,2,2,0,8,3,2,1.4705e+15,0
8,0,2,0,3,26,8,3,1.4705e+15,0
15,3,7,5,2,3,2,3,1.4705e+15,0
14,8,5,5,2,2,0,3,1.4705e+15,0
7,4,1,1,1,5,3,0,1.4705e+15,0
1,3,1,0,1,11,0,3,1.4705e+15,0
17,6,1,1,1,1,3,0,1.4705e+15,0
7,1,0,0,2,0,1,1,1.4705e+15,0
10,4,5,4,4,8,2,4,1.4705e+15,0
16,3,2,0,1,4,3,0,1.4705e+15,0
11,5,1,0,0,5,2,3,1.4705e+15,0
20,5,0,0,0,4,1,4,1.4705e+15,0
30,7,5,2,3,5,3,2,1.4705e+15,0
10,4,1,0,1,1,1,3,1.4705e+15,0
6,1,6,0,1,1,1,1,1.4705e+15,0
6,1,1,2,2,3,1,0,1.4705e+15,0
9,0,1,3,0,2,1,4,1.4705e+15,0
30,4,5,1,1,0,2,4,1.4705e+15,0
5,2,0,0,3,1,5,3,1.4705e+15,0
2,1,2,3,2,5,2,1,1.4705e+15,0
10,6,6,3,0,3,0,2,1.4705e+15,0
17,1,1,3,0,12,2,5,1.4705e+15,0
6,3,2,0,1,17,0,2,1.4705e+15,0
18,1,3,0,3,3,1,2,1.4705e+15,0
13,1,1,1,0,3,0,3,1.4705e+15,0
14,5,7,1,1,6,3,0,1.4705e+15,0
8,5,2,3,0,6,0,0,1.4705e+15,0
13,2,5,1,0,2,1,0,1.4705e+15,0
2,1,2,1,1,0,1,1,1.4705e+15,0
13,2,1,1,0,2,2,1,1.4705e+15,0
20,4,1,2,1,1,1,1,1.4705e+15,0
2,1,0,1,0,3,3,3,1.4705e+15,0
11,3,7,3,2,1,0,2,1.4705e+15,0
32,1,1,1,1,11,2,1,1.4705e+15,0
8,1,2,0,1,12,2,2,1.4705e+15,0
2,4,2,1,3,1,5,2,1.4705e+15,0
5,0,3,2,2,0,2,0,1.4705e+15,0
5,2,2,2,2,1,4,4,1.4705e+15,0
1,4,3,3,0,6,4,1,1.4705e+15,0
8,0,3,0,1,0,2,0,1.4705e+15,0
8,0,0,2,1,0,0,1,1.4705e+15,0
3,1,4,2,3,0,0,1,1.4705e+15,0
15,6,1,1,2,4,1,5,1.4705e+15,0
1,1,0,1,0,1,2,2,1.4705e+15,0
5,6,2,0,1,0,3,3,1.4705e+15,0
1,1,0,3,1,3,2,0,1.4705e+15,0
18,2,4,1,1,4,3,1,1.4705e+15,0
20,5,2,4,3,2,1,1,1.4705e+15,0
16,3,2,4,4,6,4,3,1.4705e+15,0
25,5,1,2,2,1,1,1,1.4705e+15,0
7,1,3,0,1,2,3,4,1.4705e+15,0
30,1,2,1,1,0,1,4,1.4705e+15,0
13,1,1,3,0,1,1,1,1.4705e+15,0
9,1,3,2,2,2,2,0,1.4705e+15,0
15,0,1,1,1,4,1,6,1.4705e+15,0
27,2,1,1,2,4,1,4,1.4705e+15,0
13,2,5,3,1,1,2,1,1.4705e+15,0
4,3,7,4,0,7,1,1,1.4705e+15,0
0,1,0,0,0,0,2,1,1.4705e+15,0
19,3,0,3,1,2,2,2,1.4705e+15,0
10,5,4,2,2,6,1,2,1.4705e+15,0
17,3,1,4,1,6,1,1,1.4705e+15,0
32,9,5,0,1,8,1,8,1.4705e+15,0
5,2,0,1,1,4,0,0,1.4705e+15,0
11,3,1,0,1,2,0,0,1.4705e+15,0
4,2,3,0,2,2,0,2,1.4705e+15,0
10,2,2,1,1,4,2,2,1.4705e+15,0
6,3,6,1,1,1,4,4,1.4705e+15,0
8,3,2,3,1,1,0,1,1.4705e+15,0
0,2,0,1,0,3,2,1,1.4705e+15,0
12,2,3,3,0,3,1,2,1.4705e+15,0
19,10,5,5,2,1,1,6,1.4705e+15,0
13,2,3,1,3,5,4,2,1.4705e+15,0
0,3,3,3,0,11,2,0,1.4705e+15,0
2,1,3,1,3,25,9,4,1.4705e+15,0
19,4,0,3,0,2,2,6,1.4705e+15,0
4,1,1,3,1,1,4,3,1.4705e+15,0
8,5,4,1,1,2,4,9,1.4705e+15,0
4,0,1,4,0,5,2,2,1.4705e+15,0
24,2,2,0,3,7,4,0,1.4705e+15,0
1,2,0,2,1,3,1,2,1.4705e+15,0
28,4,3,0,0,1,2,1,1.4705e+15,0
20,1,0,3,2,4,2,1,1.4705e+15,0
0,1,2,2,2,6,3,1,1.4705e+15,0
6,1,1,4,2,2,2,4,1.4705e+15,0
7,1,0,0,2,3,2,0,1.4705e+15,0
13,3,5,3,3,5,2,1,1.4705e+15,0
29,2,2,3,2,2,2,5,1.4705e+15,0
20,2,1,2,1,0,0,1,1.4705e+15,0
7,1,2,1,2,0,1,0,1.4705e+15,0
13,4,6,3,1,3,1,0,1.4705e+15,0
7,2,1,0,2,1,1,3,1.4705e+15,0
7,0,3,1,1,14,4,1,1.4705e+15,0
1,2,3,4,3,19,8,4,1.4705e+15,0
7,3,3,1,1,8,5,4,1.4705e+15,0
0,4,4,0,0,6,3,2,1.4705e+15,0
3,6,6,1,1,6,2,2,1.4705e+15,0
8,2,4,4,2,1,0,3,1.4705e+15,0
11,4,0,1,1,1,2,1,1.4705e+15,0
12,1,2,2,1,3,2,2,1.4705e+15,0
22,3,1,1,1,13,4,0,1.4705e+15,0
5,0,4,0,3,2,3,2,1.4705e+15,0
10,4,2,2,1,3,3,2,1.4705e+15,0
11,1,1,0,0,3,2,0,1.4705e+15,0
5,1,2,2,0,3,2,1,1.4705e+15,0
2,2,2,2,1,1,0,5,1.4705e+15,0
4,4,3,2,3,2,3,2,1.4705e+15,0
16,4,4,2,1,3,1,2,1.4705e+15,0
18,4,7,5,2,3,2,5,1.4705e+15,0
14,2,1,2,2,1,2,1,1.4705e+15,0
20,3,2,1,0,6,0,0,1.4705e+15,0
3,1,5,2,1,18,5,3,1.4705e+15,0
30,6,3,0,1,3,1,1,1.4705e+15,0
10,0,2,0,1,3,1,3,1.4705e+15,0
31,5,5,3,1,8,3,4,1.4705e+15,0
8,0,2,1,1,8,2,2,1.4705e+15,0
4,3,4,1,0,5,3,3,1.4705e+15,0
32,5,0,0,2,6,3,4,1.4705e+15,0
2,3,3,0,1,3,1,2,1.4705e+15,0
5,3,6,2,2,3,1,2,1.4705e+15,0
33,11,7,5,3,6,5,8,1.4705e+15,0
7,2,3,0,1,6,1,4,1.4705e+15,0
33,7,6,1,2,4,0,3,1.4705e+15,0
8,1,3,1,1,3,1,2,1.4705e+15,0
9,1,4,2,2,4,1,3,1.4705e+15,0
7,2,0,1,1,2,1,4,1.4705e+15,0
21,3,1,2,1,2,0,7,1.4705e+15,0
25,3,2,2,1,2,2,1,1.4705e+15,0
7,2,4,1,2,11,1,5,1.4705e+15,0
8,2,4,3,3,4,2,3,1.4705e+15,0
12,6,3,1,1,4,0,1,1.4705e+15,0
7,1,2,1,0,2,1,6,1.4705e+15,0
25,1,1,2,0,8,0,6,1.4705e+15,0
1,2,1,5,2,2,3,3,1.4705e+15,0
13,7,7,0,1,7,2,7,1.4705e+15,0
18,3,1,1,1,5,1,2,1.4705e+15,0
10,5,0,0,1,6,5,2,1.4705e+15,0
62,17,8,4,2,1,1,6,1.4705e+15,0
18,4,7,2,1,2,2,1,1.4705e+15,0
14,3,6,0,1,11,4,3,1.4705e+15,0
12,2,1,4,2,13,0,0,1.4705e+15,0
10,1,0,2,0,1,2,2,1.4705e+15,0
17,7,6,1,1,2,1,1,1.4705e+15,0
15,6,1,4,4,2,0,1,1.4705e+15,0
17,1,1,2,2,6,3,1,1.4705e+15,0
5,3,3,5,1,1,2,0,1.4705e+15,0
8,5,4,2,0,0,1,2,1.4705e+15,0
16,6,3,1,1,1,1,5,1.4705e+15,0
8,2,3,1,2,5,3,0,1.4705e+15,0
2,2,3,3,1,11,2,5,1.4705e+15,0
3,1,1,1,1,5,2,2,1.4705e+15,0
12,1,2,2,1,4,2,2,1.4705e+15,0
6,2,3,1,1,0,1,0,1.4705e+15,0
9,2,1,2,2,7,3,3,1.4705e+15,0
3,1,1,3,3,0,0,0,1.4705e+15,0
7,6,4,3,2,0,3,2,1.4705e+15,0
39,7,0,1,0,1,3,6,1.4705e+15,0
1,1,2,0,1,4,1,0,1.4705e+15,0
15,0,1,1,0,3,0,0,1.4705e+15,0
24,3,0,0,0,2,0,2,1.4705e+15,0
5,2,5,1,1,3,1,4,1.4705e+15,0
6,4,3,1,1,1,0,0,1.4705e+15,0
7,3,3,1,0,3,1,1,1.4705e+15,0
3,1,4,2,1,5,5,4,1.4705e+15,0
19,1,2,2,0,20,6,5,1.4705e+15,0
14,2,4,1,2,16,8,5,1.4705e+15,0
3,1,2,1,1,4,3,1,1.4705e+15,0
14,2,2,3,2,4,2,2,1.4705e+15,0
36,6,4,2,1,9,2,1,1.4705e+15,0
10,1,1,2,1,4,3,2,1.4705e+15,0
5,2,1,1,2,6,3,2,1.4705e+15,0
10,1,1,2,1,2,1,5,1.4705e+15,0
6,0,2,0,2,7,2,2,1.4705e+15,0
24,5,6,1,2,5,3,4,1.4705e+15,0
6,8,5,1,2,1,0,0,1.4705e+15,0
41,7,6,5,2,0,3,8,1.4705e+15,0
22,4,1,0,1,5,1,3,1.4705e+15,0
22,8,6,2,1,1,2,8,1.4705e+15,0
0,2,4,5,0,0,3,2,1.4705e+15,1
21,1,4,2,2,3,2,1,1.4705e+15,1
2,0,1,1,1,2,2,0,1.4705e+15,1
3,1,2,1,3,6,3,1,1.4705e+15,1
9,1,4,4,3,1,2,1,1.4705e+15,1
5,1,4,2,0,0,0,2,1.4705e+15,1
8,0,4,2,0,7,2,2,1.4705e+15,1
1,1,1,2,2,4,1,1,1.4705e+15,1
17,3,3,1,1,4,0,1,1.4705e+15,1
12,3,7,5,2,8,2,3,1.4705e+15,1
13,5,6,1,1,6,2,1,1.4705e+15,1
20,4,5,2,1,3,1,1,1.4705e+15,1
7,3,2,1,1,4,1,0,1.4705e+15,1
1,5,0,2,3,6,3,3,1.4705e+15,1
9,1,3,2,0,4,1,1,1.4705e+15,1
10,3,4,1,2,0,2,0,1.4705e+15,1
1,1,1,3,1,1,1,0,1.4705e+15,1
5,3,2,1,2,0,2,0,1.4705e+15,1
4,0,1,2,3,2,2,1,1.4705e+15,1
25,1,2,2,2,3,3,2,1.4705e+15,1
65,12,8,3,0,3,5,11,1.4705e+15,1
8,5,1,1,0,10,1,3,1.4705e+15,1
2,2,0,0,1,24,7,2,1.4705e+15,1
2,3,0,3,1,2,2,3,1.4705e+15,1
34,2,1,0,1,0,1,4,1.4705e+15,1
15,3,3,2,1,3,5,1,1.4705e+15,1
4,2,1,1,0,3,2,0,1.4705e+15,1
1,1,1,2,2,2,0,1,1.4705e+15,1
1,3,1,0,3,0,1,0,1.4705e+15,1
11,2,1,0,1,1,1,0,1.4705e+15,1
3,1,3,3,2,2,1,2,1.4705e+15,1
3,4,2,0,2,6,1,2,1.4705e+15,1
9,1,2,1,1,10,3,0,1.4705e+15,1
18,3,2,4,2,3,2,1,1.4705e+15,1
11,1,2,2,1,2,1,3,1.4705e+15,1
5,1,1,0,0,1,1,1,1.4705e+15,1
16,1,2,0,2,3,0,7,1.4705e+15,1
5,4,0,2,0,3,4,8,1.4705e+15,1
5,3,3,4,1,1,1,3,1.4705e+15,1
17,2,1,3,1,1,3,3,1.4705e+15,1
3,2,1,1,1,2,1,1,1.4705e+15,1
6,0,2,0,2,2,2,0,1.4705e+15,1
9,3,2,2,2,2,3,0,1.4705e+15,1
1,1,0,2,1,1,3,1,1.4705e+15,1
8,5,1,2,1,0,10,1,1.4705e+15,1
7,5,1,2,0,2,2,1,1.4705e+15,1
1,1,2,1,4,11,34,9,1.4705e+15,1
3,4,0,1,0,3,4,0,1.4705e+15,1
3,1,2,3,1,2,21,5,1.4705e+15,1
1,4,2,2,3,21,11,3,1.4705e+15,1
10,1,3,2,4,11,21,4,1.4705e+15,1
10,1,4,2,1,1,17,0,1.4705e+15,1
1,1,1,1,2,4,21,7,1.4705e+15,1
5,0,1,1,0,1,25,0,1.4705e+15,1
3,3,0,2,1,4,23,2,1.4705e+15,1
2,0,5,3,0,3,5,3,1.4705e+15,1
4,0,0,1,1,4,26,7,1.4705e+15,1
3,3,3,1,1,6,13,2,1.4705e+15,1
17,5,5,0,1,1,4,4,1.4705e+15,1
4,3,4,4,1,5,10,4,1.4705e+15,1
3,1,3,1,1,7,28,3,1.4705e+15,1
2,3,6,2,2,0,1,3,1.4705e+15,1
3,3,3,2,0,3,7,0,1.4705e+15,1
6,7,3,1,0,5,11,3,1.4705e+15,1
12,4,1,1,1,1,1,0,1.4705e+15,1
3,0,5,5,3,8,2,0,1.4705e+15,1
8,0,4,4,2,2,12,7,1.4705e+15,1
29,4,5,1,1,3,18,3,1.4705e+15,1
6,2,4,1,3,5,3,2,1.4705e+15,1
9,3,2,3,2,17,47,4,1.4705e+15,1
0,2,5,3,3,16,68,7,1.4705e+15,1
4,1,0,2,4,12,25,9,1.4705e+15,1
6,4,2,1,1,2,19,13,1.4705e+15,1
15,4,2,0,0,2,29,1,1.4705e+15,1
4,2,1,2,1,29,43,6,1.4705e+15,1
31,9,3,1,0,16,13,1,1.4705e+15,1
7,3,2,1,3,0,10,3,1.4705e+15,1
4,1,4,2,2,5,23,7,1.4705e+15,1
2,0,2,1,6,17,26,1,1.4705e+15,1
7,2,6,4,1,5,2,15,1.4705e+15,1
14,7,5,2,4,4,4,10,1.4705e+15,1
6,4,5,2,1,1,7,8,1.4705e+15,1
1,3,1,0,1,2,3,6,1.4705e+15,1
18,7,4,1,2,0,36,7,1.4705e+15,1
22,2,0,1,2,3,3,7,1.4705e+15,1
7,4,1,2,3,6,24,12,1.4705e+15,1
6,2,1,0,2,0,9,2,1.4705e+15,1
9,1,1,2,2,1,3,5,1.4705e+15,1
21,6,0,0,2,11,35,10,1.4705e+15,1
10,4,3,0,2,24,56,17,1.4705e+15,1
12,7,7,5,4,35,46,9,1.4705e+15,1
2,1,0,0,1,6,8,12,1.4705e+15,1
3,4,3,1,2,2,25,8,1.4705e+15,1
14,1,1,3,4,18,63,14,1.4705e+15,1
14,2,0,1,1,16,64,13,1.4705e+15,1
8,12,6,6,1,17,1,4,1.4705e+15,1
0,0,0,0,3,8,4,11,1.4705e+15,1
2,2,3,2,2,2,30,13,1.4705e+15,1
22,4,0,1,2,3,9,14,1.4705e+15,1
28,0,3,4,2,1,3,3,1.4705e+15,1
10,2,1,0,0,5,11,1,1.4705e+15,1
10,0,3,1,1,7,66,2,1.4705e+15,1
6,2,3,2,4,6,28,6,1.4705e+15,1
10,8,4,2,1,18,85,17,1.4705e+15,1
10,10,4,0,3,12,17,7,1.4705e+15,1
18,5,3,4,1,6,73,24,1.4705e+15,1
3,0,1,3,27,39,14,5,1.4705e+15,1
24,5,2,3,1,11,22,12,1.4705e+15,1
21,1,0,5,10,15,27,9,1.4705e+15,1
12,8,2,0,16,20,12,15,1.4705e+15,1
8,3,8,2,6,2,25,26,1.4705e+15,1
19,1,1,2,5,24,70,8,1.4705e+15,1
7,2,2,2,10,24,35,10,1.4705e+15,1
4,1,2,1,10,13,29,8,1.4705e+15,1
10,0,1,0,1,9,13,19,1.4705e+15,1
18,2,2,4,5,18,14,14,1.4705e+15,1
14,2,1,7,17,14,15,19,1.4705e+15,1
10,4,4,3,37,7,66,12,1.4705e+15,1
7,2,4,6,67,3,52,6,1.4705e+15,1
36,14,7,0,20,6,19,14,1.4705e+15,1
9,10,6,3,7,26,51,8,1.4705e+15,1
13,2,6,4,5,30,86,26,1.4705e+15,1
26,0,1,3,26,21,44,20,1.4705e+15,1
1,2,4,2,6,2,17,11,1.4705e+15,1
26,4,0,2,4,16,3,2,1.4705e+15,1
13,7,2,4,20,5,47,5,1.4705e+15,1
12,3,0,1,21,8,11,3,1.4705e+15,1
50,1,2,0,5,23,43,6,1.4705e+15,1
13,5,2,5,3,11,29,3,1.4705e+15,1
2,0,4,1,11,23,35,11,1.4705e+15,1
19,2,4,1,6,30,72,9,1.4705e+15,1
0,3,2,2,47,6,17,26,1.4705e+15,1
37,6,3,1,5,3,12,31,1.4705e+15,1
24,13,7,5,31,18,90,26,1.4705e+15,1
17,9,3,4,9,21,49,7,1.4705e+15,1
19,6,1,1,18,30,78,5,1.4705e+15,1
5,8,3,1,7,11,13,2,1.4705e+15,1
6,7,2,0,11,0,4,12,1.4705e+15,1
23,8,6,2,14,17,26,39,1.4705e+15,1
29,2,2,1,24,35,106,38,1.4705e+15,1
12,6,8,5,12,17,7,36,1.4705e+15,1
5,0,2,0,14,46,39,21,1.4705e+15,1
29,1,0,5,6,23,82,13,1.4705e+15,1
4,1,2,6,21,26,50,12,1.4705e+15,1
23,2,3,1,11,11,86,7,1.4705e+15,1
37,7,6,3,9,16,8,15,1.4705e+15,1
7,0,1,1,17,24,18,4,1.4705e+15,1
15,7,4,2,13,7,3,24,1.4705e+15,1
22,2,0,1,10,37,92,22,1.4705e+15,1
13,6,4,6,2,29,71,27,1.4705e+15,1
21,15,4,6,4,13,86,34,1.4705e+15,1
4,6,1,2,6,9,34,4,1.4705e+15,1
33,12,1,1,9,10,14,10,1.4705e+15,1
30,8,1,1,6,3,38,23,1.4705e+15,1
18,7,4,2,7,26,35,3,1.4705e+15,1
11,1,4,1,1,40,71,11,1.4705e+15,1
0,2,1,2,3,0,4,5,1.4705e+15,1
1,5,3,3,13,19,2,25,1.4705e+15,1
6,4,1,1,8,15,17,8,1.4705e+15,1
26,12,9,4,3,19,39,2,1.4705e+15,1
28,9,4,5,9,14,8,5,1.4705e+15,1
9,10,7,4,9,2,17,1,1.4705e+15,1
12,4,1,3,8,8,19,12,1.4705e+15,1
35,9,6,4,8,17,52,18,1.4705e+15,1
21,7,2,1,8,22,24,8,1.4705e+15,1
6,5,6,1,4,53,72,7,1.4705e+15,1
8,1,1,0,5,3,30,11,1.4705e+15,1
3,4,1,4,0,42,60,19,1.4705e+15,1
30,2,7,9,5,8,61,31,1.4705e+15,1
23,5,2,2,6,17,49,14,1.4705e+15,1
1,1,2,1,13,1,29,7,1.4705e+15,1
25,3,2,3,1,9,28,10,1.4705e+15,1
26,6,3,1,4,7,25,23,1.4705e+15,1
1,0,3,2,0,8,29,25,1.4705e+15,1
5,2,4,1,6,3,25,19,1.4705e+15,1
27,2,2,4,2,18,68,53,1.4705e+15,1
2,3,3,1,2,3,106,12,1.4705e+15,1
3,0,2,7,6,17,41,2,1.4705e+15,1
1,3,7,7,7,6,19,16,1.4705e+15,1
4,1,5,1,1,10,55,37,1.4705e+15,1
13,3,3,8,12,46,53,11,1.4705e+15,1
7,5,0,3,5,21,31,16,1.4705e+15,1
7,4,2,3,29,17,9,21,1.4705e+15,1
5,4,3,6,17,29,109,14,1.4705e+15,1
3,11,6,5,7,46,116,27,1.4705e+15,1
1,13,1,2,24,22,87,22,1.4705e+15,1
10,11,4,2,24,5,4,3,1.4705e+15,1
9,9,1,0,8,14,35,11,1.4705e+15,1
9,10,8,7,15,10,0,15,1.4705e+15,1
1,3,0,2,27,5,29,7,1.4705e+15,1
11,11,6,8,32,30,4,20,1.4705e+15,1
18,10,5,3,7,29,47,47,1.4705e+15,1
2,7,1,3,17,21,10,12,1.4705e+15,1
9,16,12,6,5,20,60,57,1.4705e+15,1
13,0,1,1,12,19,31,4,1.4705e+15,1
5,4,6,7,7,11,4,18,1.4705e+15,1
6,1,6,11,4,4,5,9,1.4705e+15,1
1,9,3,4,1,0,66,27,1.4705e+15,1
17,22,0,0,5,18,58,28,1.4705e+15,1
13,21,2,2,8,4,65,20,1.4705e+15,1
11,2,4,0,7,8,54,10,1.4705e+15,1
8,0,1,8,27,0,46,3,1.4705e+15,1
6,17,10,5,10,15,9,13,1.4705e+15,1
11,4,1,1,1,19,32,26,1.4705e+15,1
16,17,10,7,18,0,21,12,1.4705e+15,1
2,17,5,1,15,4,32,7,1.4705e+15,1
4,18,7,3,7,21,85,2,1.4705e+15,1
1,19,1,4,10,13,55,2,1.4705e+15,1
15,19,4,3,8,17,20,28,1.4705e+15,1
9,31,8,3,19,10,55,45,1.4705e+15,1
19,1,14,7,24,2,50,8,1.4705e+15,1
7,9,6,3,1,11,10,5,1.4705e+15,1
1,2,1,0,1,10,54,46,1.4705e+15,1
2,16,3,0,6,27,76,3,1.4705e+15,1
1,10,8,2,31,51,118,25,1.4705e+15,1
4,3,7,1,1,17,21,36,1.4705e+15,1
4,2,9,1,13,7,74,3,1.4705e+15,1
4,5,3,8,10,2,47,27,1.4705e+15,1
1,27,1,5,12,22,64,41,1.4705e+15,1
1,11,3,8,27,5,52,81,1.4705e+15,1
5,7,1,7,10,31,41,14,1.4705e+15,1
1,8,1,4,15,56,65,16,1.4705e+15,1
1,6,5,2,19,21,26,21,1.4705e+15,1
12,13,0,5,16,25,81,66,1.4705e+15,1
0,1,9,6,18,6,12,46,1.4705e+15,1
3,1,4,4,2,51,127,4,1.4705e+15,1
2,1,11,1,6,59,91,58,1.4705e+15,1
2,3,8,3,19,10,11,12,1.4705e+15,1
8,5,6,6,1,9,52,75,1.4705e+15,1
4,9,0,6,20,41,74,29,1.4705e+15,1
0,18,22,13,18,50,97,51,1.4705e+15,1
9,35,21,4,12,61,120,1,1.4705e+15,1
10,24,10,1,7,30,53,17,1.4705e+15,1
0,19,2,1,13,6,5,12,1.4705e+15,1
8,3,11,3,12,16,16,38,1.4705e+15,1
14,6,2,1,18,0,18,5,1.4705e+15,1
0,2,1,9,39,33,46,58,1.4705e+15,1
3,1,7,7,45,35,35,26,1.4705e+15,1
6,7,8,3,10,8,2,27,1.4705e+15,1
5,11,19,24,17,29,29,2,1.4705e+15,1
2,6,5,13,28,39,12,25,1.4705e+15,1
2,1,6,22,35,14,79,20,1.4705e+15,1
7,24,5,3,26,78,39,60,1.4705e+15,1
9,2,5,10,28,9,57,55,1.4705e+15,1
3,3,4,3,5,27,44,4,1.4705e+15,1
12,9,8,4,2,50,2,62,1.4705e+15,1
4,2,3,0,2,32,94,10,1.4705e+15,1
23,4,1,1,12,26,11,34,1.4705e+15,1
4,11,4,0,7,39,97,128,1.4705e+15,1
20,21,8,3,20,46,69,11,1.4705e+15,1
7,29,12,0,19,63,127,0,1.4705e+15,1
18,8,10,8,24,4,44,46,1.4705e+15,1
6,4,1,6,48,23,22,4,1.4705e+15,1
6,2,13,17,23,34,55,4,1.4705e+15,1
3,8,12,14,15,22,63,53,1.4705e+15,1
3,7,8,10,82,16,37,31,1.4705e+15,1
4,24,10,9,42,21,18,36,1.4705e+15,1
23,25,24,4,37,7,66,95,1.4705e+15,1
5,27,17,4,19,42,1,52,1.4705e+15,1
22,7,34,0,20,37,90,31,1.4705e+15,1
26,10,10,11,15,61,40,74,1.4705e+15,1
12,17,16,12,49,35,29,18,1.4705e+15,1
13,16,5,3,55,15,17,21,1.4705e+15,1
21,18,27,11,19,95,24,98,1.4705e+15,1
36,2,16,12,96,80,125,20,1.4705e+15,1
7,1,0,1,7,57,86,37,1.4705e+15,1
2,38,22,26,39,83,127,110,1.4705e+15,1
2,24,15,14,27,69,128,85,1.4705e+15,1
32,4,20,26,12,31,118,80,1.4705e+15,1
6,18,14,5,19,27,19,14,1.4705e+15,1
5,19,11,18,40,65,71,58,1.4705e+15,1
4,11,11,17,28,45,29,3,1.4705e+15,1
1,1,8,1,63,11,0,67,1.4705e+15,1
2,11,3,13,30,33,65,43,1.4705e+15,1
17,1,13,1,13,15,64,39,1.4705e+15,1
1,1,8,1,30,80,54,15,1.4705e+15,1
5,55,9,10,70,50,13,31,1.4705e+15,1
25,56,20,9,37,19,47,30,1.4705e+15,1
8,3,8,14,24,43,51,43,1.4705e+15,1
12,5,14,9,43,55,92,38,1.4705e+15,1
20,2,1,16,31,127,127,83,1.4705e+15,1
25,1,7,5,54,116,58,3,1.4705e+15,1
48,7,2,2,41,72,127,127,1.4705e+15,1
26,19,23,12,87,53,114,11,1.4705e+15,1
20,7,8,15,37,86,121,80,1.4705e+15,1
2,5,3,0,2,20,48,64,1.4705e+15,1
12,7,17,5,24,48,89,90,1.4705e+15,1
14,28,4,7,75,82,52,114,1.4705e+15,1
7,25,18,35,82,59,57,69,1.4705e+15,1
4,4,1,14,99,13,21,3,1.4705e+15,1
22,43,5,1,75,30,53,86,1.4705e+15,1
26,47,3,11,69,104,113,93,1.4705e+15,1
10,34,30,28,9,127,127,127,1.4705e+15,1
29,34,13,4,36,61,118,70,1.4705e+15,1
14,16,3,13,62,34,17,81,1.4705e+15,1
32,30,4,12,7,59,125,96,1.4705e+15,1
32,5,11,12,28,71,82,11,1.4705e+15,1
6,2,3,12,26,26,27,52,1.4705e+15,1
30,30,10,3,36,36,4,11,1.4705e+15,1
28,46,22,9,16,61,73,20,1.4705e+15,1
8,34,0,6,55,20,127,59,1.4705e+15,1
20,2,3,3,25,84,58,40,1.4705e+15,1
44,23,19,4,3,91,85,62,1.4705e+15,1
35,21,18,19,33,22,98,0,1.4705e+15,1
5,21,0,15,45,109,121,112,1.4705e+15,1
19,15,20,26,27,82,96,128,1.4705e+15,1
22,7,8,14,4,97,116,118,1.4705e+15,1
7,11,15,14,1,15,59,54,1.4705e+15,1
18,30,12,0,5,25,49,68,1.4705e+15,1
7,5,22,16,13,112,122,127,1.4705e+15,1
18,24,27,1,29,101,128,11,1.4705e+15,1
2,5,11,26,47,11,65,47,1.4705e+15,1
15,9,15,17,49,55,128,29,1.4705e+15,1
10,7,17,42,37,106,127,85,1.4705e+15,1
6,11,7,17,40,14,123,77,1.4705e+15,1
15,4,5,8,108,3,125,21,1.4705e+15,1
28,19,7,14,23,16,21,77,1.4705e+15,1
16,7,16,6,16,85,117,83,1.4705e+15,1
8,1,7,12,8,35,11,86,1.4705e+15,1
6,33,17,17,11,84,97,80,1.4705e+15,1
8,8,6,17,9,110,93,58,1.4705e+15,1
24,48,21,13,43,58,116,41,1.4705e+15,1
10,2,5,14,9,34,11,54,1.4705e+15,1
41,17,8,44,38,121,112,124,1.4705e+15,1
4,7,3,18,30,124,50,55,1.4705e+15,1
24,40,21,29,25,42,19,21,1.4705e+15,1
31,9,3,9,37,40,25,5,1.4705e+15,1
13,19,13,33,24,120,127,127,1.4705e+15,1
15,10,25,18,2,84,87,74,1.4705e+15,1
9,11,26,5,68,2,66,61,1.4705e+15,1
3,11,14,15,10,103,95,95,1.4705e+15,1
6,29,43,60,35,108,88,127,1.4705e+15,1
10,14,16,24,2,104,127,127,1.4705e+15,1
1,2,15,6,39,43,24,37,1.4705e+15,1
18,7,2,5,67,48,127,124,1.4705e+15,1
26,19,18,42,57,12,40,33,1.4705e+15,1
20,4,1,20,11,83,39,92,1.4705e+15,1
9,8,3,2,17,14,89,6,1.4705e+15,1
7,24,2,0,57,34,84,68,1.4705e+15,1
5,33,1,4,25,18,119,127,1.4705e+15,1
43,3,12,6,21,14,47,113,1.4705e+15,1
35,1,0,39,103,73,94,100,1.4705e+15,1
23,22,12,3,64,48,119,37,1.4705e+15,1
4,1,5,12,22,33,125,56,1.4705e+15,1
19,15,11,11,17,40,3,117,1.4705e+15,1
36,14,2,23,14,80,67,10,1.4705e+15,1
10,4,2,1,15,17,77,35,1.4705e+15,1
15,22,2,1,37,41,30,14,1.4705e+15,1
47,1,3,16,2,52,8,74,1.4705e+15,1
3,9,2,18,17,96,91,122,1.4705e+15,1
61,17,9,3,19,88,128,128,1.4705e+15,1
68,43,8,33,59,111,18,50,1.4705e+15,1
15,13,16,25,6,64,114,42,1.4705e+15,1
1,18,14,28,19,34,33,5,1.4705e+15,1
24,44,19,11,44,54,25,81,1.4705e+15,1
43,14,19,26,1,38,127,125,1.4705e+15,1
9,43,9,22,66,69,125,128,1.4705e+15,1
8,47,30,44,23,105,127,127,1.4705e+15,1
23,51,37,24,1,56,1,11,1.4705e+15,1
33,36,14,12,60,95,0,79,1.4705e+15,1
56,27,15,33,22,7,110,88,1.4705e+15,1
57,12,4,2,56,29,127,70,1.4705e+15,1
60,8,17,20,0,33,64,30,1.4705e+15,1
7,4,5,24,5,9,69,5,1.4705e+15,1
7,11,12,30,25,126,127,127,1.4705e+15,1
8,0,31,11,12,39,32,98,1.4705e+15,1
18,35,5,13,16,16,37,47,1.4705e+15,1
16,14,9,23,22,43,54,80,1.4705e+15,1
51,3,7,17,1,85,127,100,1.4705e+15,1
9,18,19,14,58,26,58,72,1.4705e+15,1
19,3,6,10,25,3,42,33,1.4705e+15,1
27,20,20,19,1,20,83,66,1.4705e+15,1
33,20,7,3,19,14,86,80,1.4705e+15,1
49,16,13,1,50,17,16,85,1.4705e+15,1
17,5,18,11,47,105,109,82,1.4705e+15,1
28,33,4,6,3,128,128,35,1.4705e+15,1
26,12,3,14,29,40,102,73,1.4705e+15,1
45,37,23,5,26,36,4,41,1.4705e+15,1
30,4,8,5,27,35,3,47,1.4705e+15,1
1,7,20,4,67,34,66,17,1.4705e+15,1
28,54,45,65,30,98,109,52,1.4705e+15,1
39,51,52,46,27,78,77,106,1.4705e+15,1
15,11,4,9,1,92,65,74,1.4705e+15,1
22,17,3,5,1,15,78,34,1.4705e+15,1
23,10,6,9,57,62,91,95,1.4705e+15,1
12,11,22,40,5,26,79,61,1.4705e+15,1
28,35,10,11,62,76,96,8,1.4705e+15,1
37,21,39,28,42,39,14,30,1.4705e+15,1
28,101,24,1,75,19,102,35,1.4705e+15,1
20,99,22,4,60,5,128,85,1.4705e+15,1
8,18,3,7,21,70,35,40,1.4705e+15,1
11,21,1,5,58,51,4,40,1.4705e+15,1
22,25,2,3,34,1,52,81,1.4705e+15,1
67,17,20,5,24,71,104,66,1.4705e+15,1
35,5,23,12,2,51,25,48,1.4705e+15,1
18,48,28,28,20,72,65,3,1.4705e+15,1
15,71,6,4,26,3,44,57,1.4705e+15,1
8,1,19,8,15,49,51,23,1.4705e+15,1
35,32,21,23,1,6,64,11,1.4705e+15,1
13,49,17,18,3,84,67,115,1.4705e+15,1
24,9,5,6,40,47,128,67,1.4705e+15,1
22,9,16,13,28,81,121,27,1.4705e+15,1
10,23,42,35,0,34,18,36,1.4705e+15,1
3,14,21,4,39,75,97,4,1.4705e+15,1
21,2,18,10,25,66,116,32,1.4705e+15,1
41,21,14,19,84,12,89,66,1.4705e+15,1
26,20,69,19,29,44,79,38,1.4705e+15,1
32,16,47,41,1,110,128,128,1.4705e+15,1
14,21,19,22,20,68,102,29,1.4705e+15,1
22,7,9,16,6,35,113,63,1.4705e+15,1
19,49,12,3,48,28,1,18,1.4705e+15,1
12,79,31,21,29,22,97,39,1.4705e+15,1
14,41,19,29,49,54,56,74,1.4705e+15,1
32,10,21,16,86,41,43,3,1.4705e+15,1
14,34,32,40,32,37,30,16,1.4705e+15,1
9,1,3,0,13,59,74,97,1.4705e+15,1
33,14,41,15,24,54,60,17,1.4705e+15,1
32,16,14,30,0,26,33,16,1.4705e+15,1
19,2,23,30,13,48,14,6,1.4705e+15,1
19,2,7,2,0,12,52,2,1.4705e+15,1
2,16,13,17,41,18,127,55,1.4705e+15,1
64,55,41,30,63,71,95,62,1.4705e+15,1
35,71,25,14,79,23,20,26,1.4705e+15,1
7,39,16,2,61,110,53,17,1.4705e+15,1
0,56,36,17,17,84,70,32,1.4705e+15,1
14,24,30,11,37,23,34,80,1.4705e+15,1
18,28,10,1,64,69,95,89,1.4705e+15,1
1,7,6,28,20,62,76,17,1.4705e+15,1
2,91,34,11,12,21,58,48,1.4705e+15,1
27,86,22,18,91,83,91,43,1.4705e+15,1
46,15,30,21,26,52,94,41,1.4705e+15,1
6,42,9,12,21,45,42,50,1.4705e+15,1
32,56,39,27,39,118,82,51,1.4705e+15,1
8,22,12,39,53,128,128,81,1.4705e+15,1
18,14,18,40,11,82,127,127,1.4705e+15,1
67,37,33,19,25,41,35,46,1.4705e+15,1
14,1,5,23,11,43,25,28,1.4705e+15,1
8,42,13,22,10,12,75,64,1.4705e+15,1
6,16,2,18,29,38,5,93,1.4705e+15,1
39,22,3,8,46,70,14,118,1.4705e+15,1
24,28,24,21,9,52,41,109,1.4705e+15,1
14,12,26,12,80,84,88,68,1.4705e+15,1
14,60,24,30,41,69,82,33,1.4705e+15,1
6,38,42,37,32,67,69,105,1.4705e+15,1
51,56,13,13,34,69,99,71,1.4705e+15,1
26,1,20,2,123,60,11,10,1.4705e+15,1
15,33,36,50,19,126,128,107,1.4705e+15,1
4,32,1,10,27,105,127,127,1.4705e+15,1
6,126,30,16,124,66,106,36,1.4705e+15,1
5,50,28,2,106,26,127,12,1.4705e+15,1
25,22,23,14,2,39,35,22,1.4705e+15,1
55,61,57,3,5,74,93,113,1.4705e+15,1
7,96,67,3,37,4,2,28,1.4705e+15,1
16,7,10,31,27,118,127,127,1.4705e+15,1
6,33,28,46,28,128,101,49,1.4705e+15,1
4,23,3,6,12,18,32,48,1.4705e+15,1
15,44,20,1,5,2,61,10,1.4705e+15,1
0,59,7,23,100,105,100,74,1.4705e+15,1
19,73,49,57,14,127,127,127,1.4705e+15,1
